78054
78059
78072
78074
78077
78023
78014
77981
77970
77993
77988
77991
78006
78008
78019
78051
78103
78092
78108
78113
78127
77870
77841
77718
77674
77639
77490
77493
77464
77442
77402
77323
77301
77274
77288
77265
77297
77296
77319
77329
77341
77363
77352
77358
77373
77367
77399
77423
77426
77448
77453
77461
77434
77483
77443
77428
77393
77361
77381
77374
77397
77409
77449
77459
77474
77493
77504
77519
77521
77535
77559
77576
77564
77600
77609
77623
77627
77625
77645
77649
77611
77589
77580
77556
77556
77573
77562
77579
77611
77622
77619
77639
77653
77646
77635
77667
77663
77656
77646
77637
77645
77662
77671
77675
77676
77686
77655
77596
77584
77581
77565
77545
77566
77583
77605
77600
77606
77619
77599
77606
77590
77605
77597
77610
77589
77608
77585
77609
77594
77607
77614
77603
77570
77544
77512
77523
77536
77549
77559
77564
77599
77565
77578
77583
77580
77573
77533
77537
77542
77538
77530
77547
77543
77550
77548
77574
77540
77507
77487
77463
77478
77475
77476
77500
77501
77536
77530
77549
77543
77552
77544
77551
77547
77540
77556
77567
77571
77590
77586
77576
77594
77562
77550
77517
77497
77491
77505
77510
77516
77516
77532
77541
77551
77565
77580
77561
77551
77576
77581
77586
77594
77603
77599
77599
77593
77611
77622
77605
77580
77537
77514
77499
77536
77525
77561
77553
77573
77577
77596
77576
77584
77598
77611
77596
77612
77606
77614
77622
77625
77635
77631
77642
77639
77650
77613
77573
77548
77526
77534
77541
77539
77552
77580
77581
77584
77588
77618
77618
77621
77619
77612
77633
77636
77616
77638
77635
77621
77624
77654
77653
77652
77630
77606
77566
77537
77545
77522
77555
77517
77531
77551
77542
77564
77565
77568
77576
77564
77571
77564
77585
77570
77570
77584
77576
77576
77600
77610
77603
77587
77551
77536
77508
77486
77504
77495
77506
77525
77548
77563
77551
77571
77558
77531
77555
77573
77558
77553
77586
77566
77562
77561
77581
77589
77593
77580
77537
77522
77476
77481
77482
77490
77505
77483
77529
77524
77551
77552
77535
77533
77528
77544
77538
77552
77525
77539
77547
77543
77554
77566
77559
77560
77510
77471
77440
77451
77468
77492
77497
77482
77511
77512
77528
77526
77556
77535
77538
77534
77538
77557
77564
77560
77573
77556
77584
77583
77572
77561
77497
77478
77458
77474
77487
77487
77502
77507
77512
77502
77532
77535
77539
77548
77557
77554
77548
77568
77561
77576
77572
77591
77598
77589
77610
77608
77571
77518
77498
77498
77487
77508
77516
77502
77535
77556
77553
77570
77563
77565
77567
77559
77578
77573
77570
77599
77603
77587
77605
77625
77611
77615
77599
77613
77575
77534
77523
77505
77516
77521
77521
77533
77526
77560
77573
77572
77567
77582
77580
77580
77576
77568
77598
77589
77616
77602
77612
77630
77609
77622
77615
77628
77631
77596
77552
77527
77514
77500
77509
77529
77546
77560
77558
77562
77558
77579
77576
77585
77592
36525
77580
77573
77581
77595
77582
77580
77591
77588
77606
77599
77599
77564
77522
77487
77494
77494
77500
77510
77513
77523
77525
77539
77556
77530
77540
77543
77531
77528
77539
77539
77540
77558
77548
77566
77552
77555
77572
77554
77522
77480
77451
77440
77447
77444
77463
77477
77488
77509
77496
77520
77507
77503
77525
77535
77527
77529
77546
77551
77542
77553
77563
77575
77552
77567
77533
77480
77453
77449
77446
77455
77451
77455
77461
77493
77505
77522
77514
77504
77508
77507
77540
77519
77545
77547
77555
77533
77564
77567
77571
77556
77566
77514
77478
77454
77439
77450
77428
77451
77470
77484
77478
77478
77510
77501
77532
77519
77516
77528
77517
77547
77527
77542
77550
77533
77546
77562
77574
77554
77577
77536
77492
77460
77456
77455
77457
77466
77467
77484
77487
77504
77530
77528
77531
77535
77509
77509
77515
77542
77557
77546
77570
77574
77576
77581
77593
77599
77590
77582
77562
77524
77489
77494
77494
77524
77515
77527
77523
77539
77552
77596
77582
77579
77605
77603
77622
77614
77617
77635
77632
77621
77651
77630
77660
77654
77658
77676
77682
77640
77593
77570
77562
77548
77559
77557
77575
77575
77574
77612
77594
77609
77605
77599
77604
77601
77613
77609
77594
77617
77596
77626
77626
77638
77610
77617
77614
77602
77574
77529
77497
77492
77493
77502
77533
77525
77538
77506
77519
77503
77523
77533
77516
77521
77522
77520
77519
77517
77528
77541
77538
77548
77544
77532
77533
77492
77471
77413
77423
77391
77408
77430
77445
77437
77464
77478
77476
77479
77499
77476
77484
77471
77480
77496
77507
77487
77489
77525
77509
77500
77513
77521
77471
77434
77410
77389
77372
77374
77389
77401
77410
77436
77434
77453
77449
77459
77460
77454
77491
77472
77485
77480
77499
77484
77480
77487
77503
77498
77470
77476
77421
77390
77392
77387
77387
77400
77443
77412
77429
77453
77435
77460
77474
77467
77472
77471
77498
77494
77491
77485
77498
77515
77508
77520
77521
77524
77518
77436
77437
77418
77413
77407
77422
77416
77435
77460
77458
77471
77482
77499
77495
77505
77497
77512
77525
77536
77529
77555
77528
77544
77530
77544
77549
77532
77566
77494
77460
77436
77410
77391
77423
77433
77431
77450
77454
77491
77488
77501
77485
77473
77508
77493
77501
77502
77525
77511
77506
77523
77530
77535
77540
77544
77546
77541
77540
77509
77453
77421
77421
77439
77427
77435
77435
77462
77470
30792
77475
77483
77485
77466
77474
77478
77490
77483
77494
77501
77494
77508
77498
77495
77504
77500
77509
77534
77497
77462
77407
77387
77385
77395
77394
77402
77383
77392
77428
77427
77409
77427
77425
77403
77385
77387
77389
77389
77389
77395
77406
77405
77382
77392
77395
77401
77376
77359
77346
77309
77262
77284
77263
77292
77279
77306
77310
77332
77328
77332
77330
77336
77347
77350
77343
77347
77336
77364
77359
77370
77356
77380
77373
77386
77373
77327
77263
77243
77234
77242
77240
77242
77252
77263
77268
77316
77325
77327
77327
77353
77339
77333
77337
77359
77374
77375
77364
77379
77394
77421
77416
77401
77368
77331
77289
77293
77270
77302
77317
77331
77361
77354
77377
77384
77393
77390
77393
77403
77428
77410
77403
77431
77419
77436
77430
77441
77455
77475
77437
77385
77354
77312
77323
77313
77302
77320
77332
77364
77356
77356
77379
77375
77361
77367
77351
77354
77374
77368
77339
77361
77400
77374
77373
77372
77374
77394
77375
77325
77308
77279
77280
77278
77317
77296
77323
77343
77343
77361
77364
77356
77369
77363
77362
77366
77389
77396
77402
77399
77395
77396
77407
77402
77427
77424
77398
77393
77354
77298
77295
77298
77310
77316
77321
77340
77366
77375
77391
77390
77390
77396
77396
77390
77411
77420
77419
77436
77452
77455
77456
77442
77436
77444
77452
77443
77392
77346
77317
77306
77310
77316
77312
77315
77347
77366
77358
77381
77382
77339
77355
77322
77291
77283
77287
77275
77284
77264
77260
77277
77261
77293
77264
77291
77251
77188
77163
77124
77132
77155
77156
77190
77188
77219
77241
77246
77228
77229
77206
77217
77203
77233
77205
77233
77215
77208
77221
77208
77186
77202
77191
77178
77138
77099
77058
77045
77056
77071
77059
77080
77087
77082
77113
77114
77096
77106
77120
77120
77114
77155
77145
77156
77143
77159
77159
77168
77167
77158
77148
77078
77056
77037
77042
77039
76999
76913
76924
76904
76925
76930
76938
76932
76923
76922
76917
76930
76949
76946
76967
76976
76971
76981
76995
76998
76983
76942
76889
76873
76826
76845
76848
76857
76853
76878
76904
76934
76941
76947
76952
76958
76956
76958
76973
76974
76985
77024
76999
77020
77006
77012
77013
77008
76964
76915
76904
76879
76874
76891
76898
76883
76919
76937
76961
76976
76971
76965
76963
76977
76982
76976
76983
76982
76998
77008
77011
77031
77043
77029
77047
77047
77023
76976
76926
76922
76906
76905
76918
76941
76962
76962
76971
77007
77021
77019
76990
77003
77017
77001
77019
77031
77029
77048
77056
77068
77043
77067
77067
77082
77066
77019
76969
76932
76949
76934
76943
76955
76967
76978
76983
77013
77026
77023
77027
77014
77027
77020
77009
77030
77036
77064
77067
77058
77062
77077
77075
77067
77076
77050
76981
76959
76944
76935
76945
76956
76967
76974
76997
77043
77023
77019
77010
77043
77044
77031
77026
77036
77055
77061
77067
77066
77074
77092
77081
77091
77089
77042
76975
76956
76955
76968
76970
76994
76999
77001
77035
77043
77046
77041
77063
77044
77071
77096
77079
77100
77078
77110
77119
77110
77112
77118
77112
77087
77038
76998
76992
77001
76999
77013
77029
77027
77023
77063
77064
77052
77076
77064
77067
77063
77088
77048
77072
77072
77062
77069
77055
77082
77084
77061
77006
76966
76924
76942
76926
76945
76953
76966
76972
76989
77001
77010
77002
77017
77024
77008
77029
77034
77034
77051
77034
77062
77055
77051
77057
77083
77058
76984
76958
76944
76919
76947
76924
76951
76955
76982
76982
77015
77016
77019
76996
77012
77001
77027
77020
77045
77041
77056
77030
77055
77050
77049
77062
77069
77057
77004
76941
76932
76949
76912
76935
76959
76984
76982
76995
77023
77033
77040
77019
77018
77032
77055
77042
77050
77053
77058
77064
77066
77070
77083
77085
77091
77092
77091
77070
77004
76985
76955
76951
76981
76993
76973
77007
77024
77033
77054
77060
77057
77074
77074
77074
77071
77089
77104
77106
77100
77129
77116
77115
77133
77148
77144
77147
77134
77105
77062
77026
77015
77015
77040
77056
77065
77065
77081
77101
77086
77113
77109
77124
77114
77131
77135
77151
77149
77144
77157
77177
77174
77181
77192
77191
77180
77148
77077
77056
77063
77058
77041
77059
77070
77084
77106
77131
77115
77122
77114
77146
77136
77159
77141
77142
77177
77138
77160
77175
77181
77194
77176
77182
77147
77103
77053
77017
77037
77027
77018
77044
77049
77077
77091
77114
77122
77139
77110
77133
77113
77134
77142
77147
77147
77137
77161
77158
77156
77161
77161
77123
77070
77034
77016
77009
77018
77022
77028
77025
77050
77071
77079
77089
77088
77106
77096
77096
77106
77114
77118
77124
77142
77131
77144
77144
77149
77154
77135
77069
77023
77011
76996
76996
77008
77029
77048
77066
77066
77087
77098
77103
77080
77100
77106
77100
77124
77145
77135
77132
77154
77135
77145
77173
77156
77160
77126
77078
77042
77017
77008
77007
77009
77012
77027
77031
77062
77081
77095
77090
77086
77098
77108
77103
77117
77114
77119
77130
77133
77173
77159
77176
77184
77175
77168
77116
77064
77037
77030
77021
77041
77054
77072
77063
77092
77110
77124
77131
77148
77127
77156
77140
77164
77162
77177
77182
77178
77200
77205
77210
77212
77234
77201
77210
77191
77131
77056
77063
77065
77075
77078
77095
77107
77138
77147
77151
77178
77165
77160
77193
77173
77182
77180
77193
77195
77216
77206
77209
77214
77224
77227
77237
77221
77199
77137
77091
77076
77092
77099
77103
77126
77128
77140
77166
77173
77175
77182
77201
77184
77195
77185
77206
77202
77224
77224
77219
77229
77237
77243
77254
77228
77166
77103
77092
77096
77093
77109
77117
77134
77142
77173
77148
75091
77179
77185
77185
77197
77201
77205
77214
77220
77233
77228
77236
77244
77240
77242
77221
77154
77101
77095
77088
77087
77071
77105
77105
77135
77151
77162
77182
77187
77182
77171
77185
77197
77176
77212
77203
77229
77202
77235
77236
77228
77223
77199
77153
77107
77073
77056
77062
77078
77096
77114
77117
77136
77133
77158
77187
77178
77191
77185
77204
77169
77185
77181
77184
77200
77221
77212
77223
77217
77227
77182
77112
77077
77058
77067
77072
77069
77092
77104
77116
77143
77145
77162
77151
77151
77171
77154
77165
77166
77175
77210
77188
77203
77211
77195
77209
77227
77215
77203
77101
77059
77030
77010
77027
77036
77026
77077
77083
77088
77106
77128
77140
77136
77144
77141
77142
77151
77157
77152
77155
77184
77198
77193
77186
77202
77234
77220
77180
77117
77082
77081
77086
77089
77114
77142
77156
77164
77178
77185
77211
77211
77203
77221
77229
77228
77220
77230
77239
77256
77251
77245
77254
77275
77282
77284
77220
77160
77133
77106
77103
77120
77119
77120
77145
77146
77176
77197
77202
77218
77215
77223
77206
77215
77213
77202
77223
77227
77248
77230
77235
77238
77248
77230
77209
77155
77101
77087
77068
77092
77103
77103
77116
77144
77162
77163
77188
77179
77180
77173
77196
77160
77181
77185
77215
77199
77209
77219
77217
77224
77215
77168
77115
77063
77027
77045
77051
77043
77059
77067
77103
77111
77110
77100
77114
77127
77124
77115
77123
77140
77142
77133
77157
77147
77146
77148
77146
77136
77090
77028
76995
76979
76981
77007
77018
77013
77043
77033
77055
77077
77096
77078
77075
77063
77069
77076
77075
77090
77107
77096
77108
77102
77108
77107
77044
76994
76941
76935
76922
76933
76934
76966
76967
76988
77012
77039
77024
77013
77029
77035
77043
77064
77069
77054
77077
77087
77078
77057
77061
77081
77072
77008
76935
76909
76912
76901
76918
76909
76918
76944
76974
76972
76990
77013
76995
77005
77009
77014
77029
77018
77034
77030
77031
77042
77052
77039
77063
77037
77015
76922
76877
76863
76888
76867
76884
76885
76913
76928
76955
76963
76986
77010
76998
76987
76988
77003
77006
77014
77022
77045
77065
77056
77071
77084
77111
77098
77051
76982
76964
76944
76945
76950
76958
76976
77007
77016
77039
77057
77081
77072
77074
77089
77089
77108
77106
77107
77125
77125
77129
77133
77167
77167
77156
77165
77129
77079
77017
77006
77001
77009
76991
77023
77058
77044
77077
77094
77091
77085
77087
77099
77083
77082
77100
77104
77104
77105
77123
77124
77135
77143
77141
77106
77034
77009
76971
76946
76977
76985
76980
77014
77026
77031
77051
77046
77057
77056
77041
77057
77059
77058
77072
77072
77089
77082
77090
77111
77096
77083
77021
76971
76930
76897
76922
76927
76927
76931
76965
76961
76977
76991
77003
77007
76986
76984
77003
77007
77001
77023
77043
77025
77033
77028
77047
77028
76979
76930
76884
76886
76890
76872
76887
76913
76905
76935
76957
76956
76969
76986
76969
76977
76988
76996
77007
77006
77016
77014
77033
77029
77030
77043
77014
76949
76903
76875
76871
76872
76885
76869
76906
76914
76933
76949
76981
76967
76979
76989
76995
76994
77000
77002
77027
77012
76997
77029
77009
77036
77024
77026
76995
76923
76875
76855
76879
76880
76871
76894
76899
76944
76949
76963
76960
76975
76978
76984
76980
76983
76997
77001
77013
77034
77021
77037
77063
77068
77067
77070
77054
77009
76952
76905
76919
76921
76912
76936
76951
76960
76958
77003
77013
77034
77042
77033
77031
77033
77037
77063
77041
77075
77061
77063
77058
77088
77079
77091
77091
77093
77036
76974
76956
76927
76929
76939
76958
76959
76972
77001
77014
77025
77043
77023
77029
77023
77028
77026
77036
77042
77055
77063
77051
77073
77060
77059
77053
77044
76980
76925
76898
76905
76901
76926
76914
76930
76959
76968
76995
77008
77002
77033
77002
76991
76992
77005
77015
77015
77021
77016
77033
77039
77054
77053
77029
76965
76902
76861
76878
76870
76873
76898
76915
76924
76941
76965
76951
76982
76987
76988
76984
76965
77008
76987
76995
77001
77006
77007
77022
77023
77034
77022
76949
76896
76860
76847
76841
76851
76876
76888
76920
76930
76953
76950
76955
76965
76966
76957
76971
76988
76973
76990
77010
77016
77021
77030
77010
77016
77027
76993
76928
76881
76869
76844
76838
76865
76877
76889
76875
76916
76944
76960
76970
76968
76960
76959
76962
76979
76983
76995
76989
77000
77005
76994
77020
77021
77007
76993
76921
76884
76861
76835
76845
76854
76880
76902
76884
76912
76923
76935
76953
76962
76956
76949
76975
76975
76982
76985
76995
76996
76990
77003
77003
77023
77037
77026
76969
76940
76874
76861
76851
76870
76882
76881
76902
76915
76926
76953
76956
76984
76986
76979
76987
76987
76992
77013
77008
77026
77024
77038
77038
77027
77040
77038
77021
76981
76927
76899
76889
76889
76899
76918
76934
76952
76948
76980
76999
77010
77004
77004
77010
76997
77011
77009
77009
77018
77030
77018
77040
77043
77040
77034
76996
76925
76904
76876
76890
76873
76901
76912
76939
76917
76950
76968
76974
76959
76960
76947
76967
76943
76957
76970
76958
76977
76975
76996
76986
76987
76963
76904
76859
76839
76810
76819
76802
76828
76848
76843
76855
76886
76907
76915
76903
76918
76923
76931
76947
76930
76932
76956
76958
76947
76967
76979
76950
76925
76853
76814
76806
76790
76789
76817
76807
76854
76865
76867
76872
76902
76926
76996
77078
76834
76340
76095
75923
75799
75714
75592
75546
75483
75488
75480
75418
75340
75371
75392
75420
75435
75406
75390
75429
75348
75288
75231
75262
75198
75196
75176
75140
75155
75178
75235
75307
75347
75405
75445
75462
75485
75431
75344
75276
75229
75216
75216
75216
75202
75204
75227
75251
75252
75242
75228
75220
75232
75230
75225
75232
75217
75230
75447
75547
75599
75657
75686
75721
75761
75761
75683
75616
75601
75617
75636
75672
75722
75794
75857
75917
75965
76011
76029
76060
76059
76080
76091
76105
76125
76139
76172
76181
76180
76225
76246
76253
76281
76265
76177
76109
76070
76057
76022
75994
75994
75967
75950
75914
75887
75843
75718
75448
75204
75008
74890
74853
74828
74838
74831
74857
74873
74920
74935
74963
75013
74926
74819
74713
74675
74658
74614
74620
74640
74676
74725
74807
74864
74934
74993
75061
75092
75128
75129
75152
75158
75176
74938
74685
75009
75495
75821
75760
75608
75531
75371
75174
75011
74926
74841
74754
74726
74716
74721
74776
74797
74797
74824
74841
74838
74873
74889
74910
74918
74903
74935
74955
74963
74945
74875
74796
74748
74735
74736
74712
74735
74759
74783
74802
74847
74855
74866
74860
74867
74878
74853
74881
74885
74884
74861
74877
74867
74875
74892
74848
74758
74675
74610
74600
74607
74611
74608
74630
74639
74661
74650
74665
74678
74686
74671
74669
74667
74666
74687
74698
74693
74714
74713
74695
74696
74636
74558
74512
74488
74474
74492
74479
74457
74495
74479
74545
74519
74534
74523
74512
74532
74530
74519
74527
74531
74543
74548
74558
74577
74603
74609
74499
74850
75559
75696
75777
75853
75913
75972
76058
76107
76158
76182
76194
76223
76237
76232
76231
76246
76265
76263
76267
76261
76283
76286
76288
76316
76337
76311
76213
76075
76009
75965
75945
75943
75956
75974
75988
76003
76042
76096
76095
76092
76117
76088
76100
76068
76084
76093
76094
76080
76060
76007
75994
75968
75953
75907
75774
75690
75607
75562
75548
75556
75557
75598
75632
75660
75710
75721
75732
75727
75723
75712
75729
75720
75739
75737
75739
75764
75751
75765
75765
75763
75723
75597
75477
75389
75364
75344
75351
75368
75380
75404
75454
75488
75513
75533
75530
75525
75513
75514
75522
75519
75518
75536
75541
75557
75568
75581
75567
75488
75335
75231
75152
75136
75125
75162
75174
75195
75231
75247
75276
75287
75326
75331
75303
75321
75335
75340
75356
75372
75385
75417
75424
75457
75453
75428
75287
75190
75089
75067
75056
75087
75097
75129
75166
75225
75269
75295
75327
75345
75359
75377
75391
75420
75445
75440
75476
75494
75512
75525
75547
75590
75508
75378
75256
75168
75123
75124
75138
75149
75171
52893
75279
75313
75338
75383
75396
75407
75433
75435
75454
75466
75472
75498
75500
75539
75541
75555
75572
75562
75477
75342
75203
75148
75125
75107
75130
75145
75160
75210
75253
75287
75344
75336
75364
75370
75382
75395
75402
75430
75423
75461
75460
75494
75483
75510
75516
75501
75422
75276
75176
75099
75070
75084
75076
75116
75129
75168
75184
75228
75254
75301
75316
75321
75335
75324
75338
75367
75361
75370
75392
75405
75413
75437
75424
75454
75396
75280
75156
75067
75026
75005
75030
75061
75065
75104
75157
75193
75220
75255
75270
75276
75251
75289
75301
75304
75324
75335
75374
75374
75380
75408
75422
75427
75387
75267
75129
75052
75008
75010
75026
75037
75061
75090
75158
75191
75242
75254
75257
75276
75270
75287
75293
75316
75334
75362
75370
75388
75399
75425
75437
75400
75300
75180
75065
75017
74991
75000
75017
75038
75087
75129
75169
75218
75242
75275
75273
75287
75308
75318
75307
75339
75353
75371
75383
75390
75435
75434
75386
75248
75113
75007
74979
74956
74956
74995
75000
75050
75103
75150
75181
75207
75232
75254
75243
75279
75282
75310
75311
75354
75343
75376
75427
75420
75414
75308
75173
75055
74977
74944
74951
74983
74999
75043
75083
75108
75175
75207
75221
75239
75255
75267
75274
75291
75312
75336
75348
75353
75376
75400
75397
75379
75245
75097
74992
74954
74939
74949
74961
74993
75023
75069
75093
75147
75190
75204
75216
75218
75250
75239
75262
75269
75295
75326
75336
75349
75350
75388
75358
75278
75135
75008
74930
74913
74907
74925
74934
74973
75008
75049
75094
75124
75178
75172
75197
75205
75223
75246
75247
75262
75273
75302
75293
75314
75323
75336
75323
75212
75087
74981
74904
74894
74875
74908
74917
74949
74990
75025
75066
75117
75137
75140
75151
75154
75170
75174
75199
75198
75227
75246
75238
75261
75282
75295
75286
75202
75065
74958
74908
74885
74910
74921
74967
74991
75035
75093
75137
75158
75175
75162
75169
75206
75220
75223
75254
75279
75281
75293
75319
75320
75352
75366
75295
75183
75054
74961
74921
74937
74936
74982
75005
75053
75103
75152
75176
75245
75236
75241
75268
75259
75284
75303
75298
75316
75344
75357
75377
75402
75398
75304
75183
75056
74969
74942
74941
74964
74975
75009
75057
75096
75141
75175
75203
75223
75212
75223
75257
75260
75277
75290
75327
75328
75380
75385
75396
75386
75265
75137
75014
74948
74930
74950
74956
74987
75018
75068
75102
75176
75196
75213
75238
75248
75260
75271
75290
75304
75332
75312
75366
75356
75393
75381
75372
75259
75112
75016
74945
74907
74918
74945
74960
74981
75019
75085
75124
75160
75187
75230
75211
75219
75235
75253
75263
75275
75283
75307
75329
75338
75345
75362
75315
75196
75045
74962
74892
74901
74882
74916
74948
74951
75012
75047
75087
75118
75135
75182
75192
75174
75194
75206
75221
75238
75249
75258
75280
75302
75312
75307
75310
75227
75079
74961
74891
74863
74858
74863
74895
74901
74968
74977
75043
75073
75101
75093
75123
75135
75137
75142
75177
75175
75199
75218
75223
75236
75262
75256
75294
75284
75191
75050
74945
74881
74877
74883
74889
74931
74955
75013
75057
75113
75134
75154
75166
75169
75187
75198
75204
75227
75227
75254
75263
75268
75290
75311
75345
75337
75277
75141
75016
74950
74906
74914
74937
74959
75004
75044
75078
75162
75175
75191
75220
75225
75232
75250
75257
75276
75281
75314
75331
75364
75362
75401
75424
75403
75305
75151
75048
74966
74955
74958
74979
75034
75038
75093
75141
75194
75226
75231
75267
75271
75267
75284
75296
75330
75342
75346
75365
75395
75403
75434
75425
75352
75186
75075
74999
74960
74978
75011
75044
75067
75097
75156
75202
75243
75264
75284
75285
75309
75336
75338
75351
75346
75379
75395
75439
75429
75463
75464
75387
75252
75120
75034
74987
74994
74985
75013
75068
75079
75121
75178
75209
75240
75267
75282
75293
75312
75312
75328
75346
75368
75390
75379
75406
75404
75445
75388
75262
75129
75023
74978
74964
74951
74985
74984
75045
75084
75125
75152
75215
75231
75249
75266
75249
75269
75281
75306
75306
75311
75342
75350
75375
75369
75389
75337
75208
75072
74986
74928
74919
74932
74933
74979
74995
75056
75089
75116
75163
75180
75176
75184
75192
75191
75209
75215
75217
75232
75264
75257
75284
75291
75316
75285
75180
75041
74921
74866
74848
74843
74871
74893
74955
74992
75033
75071
75090
75123
75139
75115
75155
75171
75159
75181
75201
75218
75225
75260
75272
75311
75303
75286
75182
75049
74950
74878
74880
74886
74898
74939
74974
75026
75061
75109
75146
75164
75187
75184
75188
75205
75221
75236
75256
75276
75279
75297
75320
75343
75335
75239
75111
74995
74943
74930
74916
74925
74969
75001
75052
75098
75139
75191
75201
75218
75200
75224
75244
75256
75272
75290
75296
75314
75333
75362
75367
75340
75219
75083
74971
74930
74921
74963
74955
75005
75033
75086
75099
75152
75196
75221
75219
75206
75225
75232
75271
75281
75283
75310
75312
75351
75348
75359
75273
75133
75013
74945
74915
74938
74959
74983
75018
75052
75102
75148
75173
75224
75245
75249
75259
75268
75279
75302
75331
75346
75362
75360
75382
75408
75363
75249
75099
75009
74969
74940
74931
74955
74990
75024
75073
75106
75145
75178
75188
75213
75223
75232
75241
75258
75281
75274
75318
75320
75355
75363
75379
75387
75278
75139
75011
74955
74932
74909
74931
74936
74978
75027
75056
75101
75148
75167
75180
75211
75196
75189
75213
75228
75230
75244
75274
75285
75289
75314
75336
75342
75301
75156
75017
74926
74879
74878
74865
74897
74923
74940
74977
75032
75076
75094
75115
75129
75116
75138
75134
75144
75143
75156
75171
75197
75198
75219
75236
75254
75249
75191
75065
74939
74855
74822
74809
74838
74864
74892
74926
74991
75020
75058
75075
75096
75096
75122
75105
75134
75162
75149
75191
75196
75210
75219
75245
75269
75273
75209
75086
74962
74866
74842
74832
74852
74869
74908
74963
75005
75043
75099
75121
75122
75151
75159
75148
75186
75181
75218
75235
75264
75284
75291
75320
75334
75310
75240
75095
74969
74876
74875
74862
74893
74924
74964
75022
75066
75126
75151
75169
75200
75213
75193
75226
75239
75236
75285
75306
75299
