17781
17765
17766
17788
80152
80175
80185
80185
80164
80170
80172
80190
80178
80190
80186
80148
80092
80082
80078
80089
80081
80098
80129
80144
80151
80155
80145
80145
80139
80131
80151
80139
80146
80154
80165
80156
80159
80134
80079
80027
80010
80030
80076
80079
80104
80083
80090
80066
80055
80026
80014
80002
79970
79936
79920
79905
79917
79911
79899
79892
79864
79827
79813
79816
79841
79833
79866
79884
79931
79940
79983
48526
48454
48384
48342
48314
48284
48254
48220
48188
48152
48139
48172
48249
48302
48343
48325
48307
48299
48248
48220
48212
48175
48168
48180
48174
48183
48181
48199
48199
48200
48180
48166
48167
80032
80025
79970
79921
79936
79910
79918
79932
79944
79957
79998
80012
80010
80003
80014
80016
80048
48373
48317
48313
48279
48258
48233
48211
48218
48296
48371
48390
48389
48381
48346
48324
48286
48249
48251
48236
48226
48231
48228
48213
48207
48210
48193
48181
48173
48156
48132
48171
48234
80153
80119
80134
80144
80159
80169
80212
80233
80231
80235
80240
80239
80238
80271
80266
80276
80282
80310
48316
48291
48295
48345
48436
48560
48653
48683
48685
48672
48637
48618
48655
48615
48608
48582
48516
48461
48405
48341
48293
48242
48215
48170
48144
48162
48230
48314
48311
48309
48296
48261
80335
80368
80388
80396
80408
80424
80450
80455
80490
80504
80501
80544
80543
80549
80542
80500
80427
80368
80334
80299
80307
80290
80308
80364
80414
80433
80473
80474
80480
80462
80463
80443
80427
80419
80432
80436
80451
80450
80413
80388
80365
80360
80350
80363
80368
80405
80401
80391
80395
80374
80380
80389
80384
80374
80383
80389
80402
80411
80414
80391
80407
80406
80397
80404
80407
80415
80420
80432
80427
80439
80446
80443
80431
80438
80425
80452
80440
80437
80435
80450
80444
80469
80471
80448
80453
80438
80433
80439
80418
80436
80430
80395
80414
80421
80427
80425
80426
80427
80431
80433
80441
80464
80478
80465
80468
80474
80496
80501
80506
80534
80525
80561
80552
80568
80571
80574
80580
80579
80597
80610
80633
80610
80618
80623
80639
80645
80643
80649
80645
80637
80636
80653
80664
80657
80648
80662
80659
80647
80647
80666
80655
80667
80667
80675
80672
80653
80660
80657
80661
80641
80649
80670
80666
80656
80675
80657
80651
80661
80642
80645
80663
80661
80665
80642
80665
80663
80655
80642
80663
80655
80653
80662
80665
80649
80645
80648
80647
80634
80633
80646
80628
80617
80633
80644
80632
80640
80640
80620
80640
80661
80655
80652
80679
80690
80666
80686
80693
80682
80690
80694
80686
80705
80697
80711
80719
80728
80715
80726
80729
80716
80715
80742
80737
80734
80744
80754
80761
80742
80756
80770
80744
80728
80754
80748
80752
80756
80734
80745
80729
80718
80732
80748
80741
80738
80749
80759
80750
80729
80749
80745
80740
80741
80736
80744
80743
80733
80731
80725
80716
80731
80740
80722
80719
80725
80721
80729
80738
80736
80737
80723
80737
80716
80740
80742
80738
80740
80736
80727
80717
80719
80722
80718
80742
80742
80770
80758
80774
80757
80768
80772
80770
80752
80748
80752
80728
80746
80759
80761
80772
80773
80765
80762
80779
80771
80767
80754
80758
80747
80702
80680
80663
80654
80641
80627
80603
80590
80583
80571
80577
80588
80570
80581
80569
80576
80552
80568
80557
80554
80572
80565
80574
80572
80575
80589
80615
80596
80616
80611
80605
80614
80602
80609
80623
80606
80614
80632
80629
80636
80634
80619
80634
80629
80621
80611
80612
80618
80619
80610
80585
80585
80598
80591
80588
80618
80668
80683
80672
80657
80682
80707
80690
80706
80701
80718
80694
80701
80677
80657
80648
80638
80625
80625
80658
80635
80638
80660
80662
80673
80669
80653
80632
80596
80531
80512
80533
80526
80536
80559
80578
80568
80572
80576
80565
80584
80568
80571
80582
80572
80581
80576
80582
80619
80610
80620
80567
80540
80476
80449
80453
80496
80531
80579
80589
80594
80594
80599
80590
80590
80584
80603
80600
80613
80605
80600
80562
80539
80531
80532
80533
80501
80494
80514
80539
80536
80570
80545
80571
80570
80612
80619
80623
80636
80604
80533
80520
80482
80473
80472
80475
80494
80494
80494
80510
80523
80530
80541
80543
80558
80567
80582
80571
80513
80464
80420
80430
80428
80417
80419
80413
80457
80446
80448
80460
80461
80455
80438
80463
80472
80454
80406
80312
80251
80204
80197
80216
80204
80193
80199
80199
80203
80214
80215
80201
80206
80225
80242
80235
80230
80212
80138
80111
80083
80060
80045
80053
80059
80057
80067
80061
80041
80015
80028
80025
80017
79996
79965
79946
79899
79817
79753
79704
79714
79679
79668
79652
79674
79722
79780
79773
79774
79755
79725
79718
79739
79699
79699
79704
79673
79570
79553
79542
79549
79546
79552
79558
79560
79600
79640
79689
79684
79706
79727
79741
79772
79777
79795
79838
79872
79884
79906
79894
79862
79810
79824
79850
79905
79937
79955
79990
80009
80005
79990
79992
79983
79965
79985
79983
80006
80007
79987
79977
79974
79945
79944
79922
79943
79933
79928
79942
79966
79985
79968
79942
79876
79817
79812
79804
79816
79835
79873
79891
79927
79954
79977
79990
79986
79983
79984
79985
79940
79876
79852
79812
79816
79834
79826
79825
79833
79846
79846
79892
79909
79888
79828
79771
79698
79634
79561
79430
79280
79263
79253
79261
79243
79251
79265
79270
79275
79260
79257
79296
79279
79271
79275
79272
79258
79261
79273
79298
79343
79385
79398
79431
79461
79479
79510
79536
79558
79587
79605
79647
79653
79660
79693
79713
79714
79715
79744
79755
79761
79758
79769
79787
79793
79808
79808
79813
79826
79794
79800
79771
79792
79795
79789
79807
79848
79844
79864
79866
79858
79887
79877
79879
79876
79867
79881
79877
79878
79876
79894
79886
79880
79900
79908
79892
79863
79836
79848
79853
79843
79862
79882
79884
79862
79872
79872
79866
79880
79861
79859
79870
79857
79848
79846
79851
79844
79850
79848
79848
79856
79849
79848
79821
79825
79849
79839
79845
79857
79800
79789
79756
79691
79653
79626
79601
79578
79584
79577
79611
79610
79611
79608
79639
79651
79639
79631
79632
79643
79695
79724
79734
79737
79774
79805
79826
79858
79893
79910
79914
79888
79889
79868
79868
79836
79795
79780
79683
79611
79566
79532
79523
79521
79544
79515
79496
79480
79477
79461
79458
79498
79577
79587
79582
79570
79523
79495
79369
79293
79289
79294
79318
79341
79384
79411
79423
79441
79467
79480
79502
79513
79548
79579
79568
79587
79591
79590
79605
79603
79611
79612
79626
79626
79641
79650
79668
79658
79662
79665
79685
79666
79662
79666
79678
79682
79686
79688
79693
79707
79731
79744
79738
79744
79716
79701
79707
79694
79707
79716
79701
79697
79706
79703
79724
79728
79734
79738
79743
79763
79766
79783
79784
79781
79770
79766
79780
79806
79822
79814
79823
79811
79804
79799
79814
79794
79823
79833
79820
79841
79829
79843
79833
79834
79831
79832
79828
79816
79822
79829
79824
79822
79848
79827
79840
79869
79856
79875
79909
79941
79954
79960
79989
79994
80008
80020
80044
80037
80026
80041
80034
80030
80043
80035
80030
80044
80032
80038
80052
80045
80042
80029
80024
80027
80028
80029
80032
80018
80018
80019
80014
80007
80014
80012
80023
80005
80035
80030
80026
80013
80028
80024
80014
80020
80020
80026
80003
80008
80016
79995
80013
80015
80019
80010
80018
80035
80019
80021
80019
80019
80023
80018
80021
80019
80027
80026
80003
80018
80028
80028
80020
80016
79990
80006
80016
80007
80013
80013
80015
80028
80031
80014
80025
80002
80019
80027
80036
80026
80018
80020
80023
80031
80041
80049
80026
80035
80013
79993
79995
80001
80016
80019
80030
80034
80032
80040
80033
80047
80036
80037
80034
80051
80065
80050
80046
80051
80035
80062
80060
80063
80054
80009
80006
80014
80014
80002
80032
80057
80063
80067
80059
80064
80054
80077
80054
80070
80066
80076
80062
80075
80060
80078
80069
80075
80079
80073
80038
80006
79987
79988
80009
80021
80054
80045
80062
80061
80064
80072
80073
80076
80070
80063
80083
80063
80072
80083
80078
80092
80077
80071
80070
80089
80077
80058
79997
80023
80015
80005
80035
80059
80074
80065
80073
80064
80082
80076
80078
80076
80066
80077
80071
80073
80073
80081
80079
80076
80069
80075
80087
80088
80042
79985
79967
79925
79924
79917
79957
79931
79933
79952
79944
79976
79943
79930
79934
79919
79913
79904
79905
79896
79860
79825
79818
79760
79731
79684
79619
79538
79431
79318
79228
79183
79124
79084
79066
79039
79038
79054
79094
79097
79129
79184
79295
79353
79363
79371
79355
79360
79354
79355
79370
79382
79365
79402
79361
79339
79342
79345
79325
79253
79200
79161
79083
78999
78709
78366
78175
78074
78004
77970
77952
77939
77933
77927
77925
77920
77913
77906
77887
77875
77867
77884
77876
77902
77930
77952
77977
77978
78000
77980
77992
77973
77970
77974
77985
78013
78017
78025
78054
78059
78072
78074
78077
78023
78014
77981
77970
77993
77988
77991
78006
78008
78019
78051
78103
78092
78108
78113
78127
77870
77841
77718
77674
77639
77490
77493
77464
77442
77402
77323
77301
77274
77288
77265
77297
77296
77319
77329
77341
77363
77352
77358
77373
77367
77399
77423
77426
77448
77453
77461
77434
77483
77443
77428
77393
77361
77381
77374
77397
77409
77449
77459
77474
77493
77504
77519
77521
77535
77559
77576
77564
77600
77609
77623
77627
77625
77645
77649
77611
77589
77580
77556
77556
77573
77562
77579
77611
77622
77619
77639
77653
77646
77635
77667
77663
77656
77646
77637
77645
77662
77671
77675
77676
77686
77655
77596
77584
77581
77565
77545
77566
77583
77605
77600
77606
77619
77599
77606
77590
77605
77597
77610
77589
77608
77585
77609
77594
77607
77614
77603
77570
77544
77512
77523
77536
77549
77559
77564
77599
77565
77578
77583
77580
77573
77533
77537
77542
77538
77530
77547
77543
77550
77548
77574
77540
77507
77487
77463
77478
77475
77476
77500
77501
77536
77530
77549
77543
77552
77544
77551
77547
77540
77556
77567
77571
77590
77586
77576
77594
77562
77550
77517
77497
77491
77505
77510
77516
77516
77532
77541
77551
77565
77580
77561
77551
77576
77581
77586
77594
77603
77599
77599
77593
77611
77622
77605
77580
77537
77514
77499
77536
77525
77561
77553
77573
77577
77596
77576
77584
77598
77611
77596
77612
77606
77614
77622
77625
77635
77631
77642
77639
77650
77613
77573
77548
77526
77534
77541
77539
77552
77580
77581
77584
77588
77618
77618
77621
77619
77612
77633
77636
77616
77638
77635
77621
77624
77654
77653
77652
77630
77606
77566
77537
77545
77522
77555
77517
77531
77551
77542
77564
77565
77568
77576
77564
77571
77564
77585
77570
77570
77584
77576
77576
77600
77610
77603
77587
77551
77536
77508
77486
77504
77495
77506
77525
77548
77563
77551
77571
77558
77531
77555
77573
77558
77553
77586
77566
77562
77561
77581
77589
77593
77580
77537
77522
77476
77481
77482
77490
77505
77483
77529
77524
77551
77552
77535
77533
77528
77544
77538
77552
77525
77539
77547
77543
77554
77566
77559
77560
77510
77471
77440
77451
77468
77492
77497
77482
77511
77512
77528
77526
77556
77535
77538
77534
77538
77557
77564
77560
77573
77556
77584
77583
77572
77561
77497
77478
77458
77474
77487
77487
77502
77507
77512
77502
77532
77535
77539
77548
77557
77554
77548
77568
77561
77576
77572
77591
77598
77589
77610
77608
77571
77518
77498
77498
77487
77508
77516
77502
77535
77556
77553
77570
77563
77565
77567
77559
77578
77573
77570
77599
77603
77587
77605
77625
77611
77615
77599
77613
77575
77534
77523
77505
77516
77521
77521
77533
77526
77560
77573
77572
77567
77582
77580
77580
77576
77568
77598
77589
77616
77602
77612
77630
77609
77622
77615
77628
77631
77596
77552
77527
77514
77500
77509
77529
77546
77560
77558
77562
77558
77579
77576
77585
77592
36525
77580
77573
77581
77595
77582
77580
77591
77588
77606
77599
77599
77564
77522
77487
77494
77494
77500
77510
77513
77523
77525
77539
77556
77530
77540
77543
77531
77528
77539
77539
77540
77558
77548
77566
77552
77555
77572
77554
77522
77480
77451
77440
77447
77444
77463
77477
77488
77509
77496
77520
77507
77503
77525
77535
77527
77529
77546
77551
77542
77553
77563
77575
77552
77567
77533
77480
77453
77449
77446
77455
77451
77455
77461
77493
77505
77522
77514
77504
77508
77507
77540
77519
77545
77547
77555
77533
77564
77567
77571
77556
77566
77514
77478
77454
77439
77450
77428
77451
77470
77484
77478
77478
77510
77501
77532
77519
77516
77528
77517
77547
77527
77542
77550
77533
77546
77562
77574
77554
77577
77536
77492
77460
77456
77455
77457
77466
77467
77484
77487
77504
77530
77528
77531
77535
77509
77509
77515
77542
77557
77546
77570
77574
77576
77581
77593
77599
77590
77582
77562
77524
77489
77494
77494
77524
77515
77527
77523
77539
77552
77596
77582
77579
77605
77603
77622
77614
77617
77635
77632
77621
77651
77630
77660
77654
77658
77676
77682
77640
77593
77570
77562
77548
77559
77557
77575
77575
77574
77612
77594
77609
77605
77599
77604
77601
77613
77609
77594
77617
77596
77626
77626
77638
77610
77617
77614
77602
77574
77529
77497
77492
77493
77502
77533
77525
77538
77506
77519
77503
77523
77533
77516
77521
77522
77520
77519
77517
77528
77541
77538
77548
77544
77532
77533
77492
77471
77413
77423
77391
77408
77430
77445
77437
77464
77478
77476
77479
77499
77476
77484
77471
77480
77496
77507
77487
77489
77525
77509
77500
77513
77521
77471
77434
77410
77389
77372
77374
77389
77401
77410
77436
77434
77453
77449
77459
77460
77454
77491
77472
77485
77480
77499
77484
77480
77487
77503
77498
77470
77476
77421
77390
77392
77387
77387
77400
77443
77412
77429
77453
77435
77460
77474
77467
77472
77471
77498
77494
77491
77485
77498
77515
77508
77520
77521
77524
77518
77436
77437
77418
77413
77407
77422
77416
77435
77460
77458
77471
77482
77499
77495
77505
77497
77512
77525
77536
77529
77555
77528
77544
77530
77544
77549
77532
77566
77494
77460
77436
77410
77391
77423
77433
77431
77450
77454
77491
77488
77501
77485
77473
77508
77493
77501
77502
77525
77511
77506
77523
77530
77535
77540
77544
77546
77541
77540
77509
77453
77421
77421
77439
77427
77435
77435
77462
77470
30792
77475
77483
77485
77466
77474
77478
77490
77483
77494
77501
77494
77508
77498
77495
77504
77500
77509
77534
77497
77462
77407
77387
77385
77395
77394
77402
77383
77392
77428
77427
77409
77427
77425
77403
77385
77387
77389
77389
77389
77395
77406
77405
77382
77392
77395
77401
77376
77359
77346
77309
77262
77284
77263
77292
77279
77306
77310
77332
77328
77332
77330
77336
77347
77350
77343
77347
77336
77364
77359
77370
77356
77380
77373
77386
77373
77327
77263
77243
77234
77242
77240
77242
77252
77263
77268
77316
77325
77327
77327
77353
77339
77333
77337
77359
77374
77375
77364
77379
77394
77421
77416
77401
77368
77331
77289
77293
77270
77302
77317
77331
77361
77354
77377
77384
77393
77390
77393
77403
77428
77410
77403
77431
77419
77436
77430
77441
77455
77475
77437
77385
77354
77312
77323
77313
77302
77320
77332
77364
77356
77356
77379
77375
77361
77367
77351
77354
77374
77368
77339
77361
77400
77374
77373
77372
77374
77394
77375
77325
77308
77279
77280
77278
77317
77296
77323
77343
77343
77361
77364
77356
77369
77363
77362
77366
77389
77396
77402
77399
77395
77396
77407
77402
77427
77424
77398
77393
77354
77298
77295
77298
77310
77316
77321
77340
77366
77375
77391
77390
77390
77396
77396
77390
77411
77420
77419
77436
77452
77455
77456
77442
77436
77444
77452
77443
77392
77346
77317
77306
77310
77316
77312
77315
77347
77366
77358
77381
77382
77339
77355
77322
77291
77283
77287
77275
77284
77264
77260
77277
77261
77293
77264
77291
77251
77188
77163
77124
77132
77155
77156
77190
77188
77219
77241
77246
77228
77229
77206
77217
77203
77233
77205
77233
77215
77208
77221
77208
77186
77202
77191
77178
77138
77099
77058
77045
77056
77071
77059
77080
77087
77082
77113
77114
77096
77106
77120
77120
77114
77155
77145
77156
77143
77159
77159
77168
77167
77158
77148
77078
77056
77037
77042
77039
76999
76913
76924
76904
76925
76930
76938
76932
76923
76922
76917
76930
76949
76946
76967
76976
76971
76981
76995
76998
76983
76942
76889
76873
76826
76845
76848
76857
76853
76878
76904
76934
76941
76947
76952
76958
76956
76958
76973
76974
76985
77024
76999
77020
77006
77012
77013
77008
76964
76915
76904
76879
76874
76891
76898
76883
76919
76937
76961
76976
76971
76965
76963
76977
76982
76976
76983
76982
76998
77008
77011
77031
77043
77029
77047
77047
77023
76976
76926
76922
76906
76905
76918
76941
76962
76962
76971
77007
77021
77019
76990
77003
77017
77001
77019
77031
77029
77048
77056
77068
77043
77067
77067
77082
77066
77019
76969
76932
76949
76934
76943
76955
76967
76978
76983
77013
77026
77023
77027
77014
77027
77020
77009
77030
77036
77064
77067
77058
77062
77077
77075
77067
77076
77050
76981
76959
76944
76935
76945
76956
76967
76974
76997
77043
77023
77019
77010
77043
77044
77031
77026
77036
77055
77061
77067
77066
77074
77092
77081
77091
77089
77042
76975
76956
76955
76968
76970
76994
76999
77001
77035
77043
77046
77041
77063
77044
77071
77096
77079
77100
77078
77110
77119
77110
77112
77118
77112
77087
77038
76998
76992
77001
76999
77013
77029
77027
77023
77063
77064
77052
77076
77064
77067
77063
77088
77048
77072
77072
77062
77069
77055
77082
77084
77061
77006
76966
76924
76942
76926
76945
76953
76966
76972
76989
77001
77010
77002
77017
77024
77008
77029
77034
77034
77051
77034
77062
77055
77051
77057
77083
77058
76984
76958
76944
76919
76947
76924
76951
76955
76982
76982
77015
77016
77019
76996
77012
77001
77027
77020
77045
77041
77056
77030
77055
77050
77049
77062
77069
77057
77004
76941
76932
76949
76912
76935
76959
76984
76982
76995
77023
77033
77040
77019
77018
77032
77055
77042
77050
77053
77058
77064
77066
77070
77083
77085
77091
77092
77091
77070
77004
76985
76955
76951
76981
76993
76973
77007
77024
77033
77054
77060
77057
77074
77074
77074
77071
77089
77104
77106
77100
77129
77116
77115
77133
77148
77144
77147
77134
77105
77062
77026
77015
77015
77040
77056
77065
77065
77081
77101
77086
77113
77109
77124
77114
77131
77135
77151
77149
77144
77157
77177
77174
77181
77192
77191
77180
77148
77077
77056
77063
77058
77041
77059
77070
77084
77106
77131
77115
77122
77114
77146
77136
77159
77141
77142
77177
77138
77160
77175
77181
77194
77176
77182
77147
77103
77053
77017
77037
77027
77018
77044
77049
77077
77091
77114
77122
77139
77110
77133
77113
77134
77142
77147
77147
77137
77161
77158
77156
77161
77161
77123
77070
77034
77016
77009
77018
77022
77028
77025
77050
77071
77079
77089
77088
77106
77096
77096
77106
77114
77118
77124
77142
77131
77144
77144
77149
77154
77135
77069
77023
77011
76996
76996
77008
77029
77048
77066
77066
77087
77098
77103
77080
77100
77106
77100
77124
77145
77135
77132
77154
77135
77145
77173
77156
77160
77126
77078
77042
77017
77008
77007
77009
77012
77027
77031
77062
77081
77095
77090
77086
77098
77108
77103
77117
77114
77119
77130
77133
77173
77159
77176
77184
77175
77168
77116
77064
77037
77030
77021
77041
77054
77072
77063
77092
77110
77124
77131
77148
77127
77156
77140
77164
77162
77177
77182
77178
77200
77205
77210
77212
77234
77201
77210
77191
77131
77056
77063
77065
77075
77078
77095
77107
77138
77147
77151
77178
77165
77160
77193
77173
77182
77180
77193
77195
77216
77206
77209
77214
77224
77227
77237
77221
77199
77137
77091
77076
77092
77099
77103
77126
77128
77140
77166
77173
77175
77182
77201
77184
77195
77185
77206
77202
77224
77224
77219
77229
77237
77243
77254
77228
77166
77103
77092
77096
77093
77109
77117
77134
77142
77173
77148
75091
77179
77185
77185
77197
77201
77205
77214
77220
77233
77228
77236
77244
77240
77242
77221
77154
77101
77095
77088
77087
77071
77105
77105
77135
77151
77162
77182
77187
77182
77171
77185
77197
77176
77212
77203
77229
77202
77235
77236
77228
77223
77199
77153
77107
77073
77056
77062
77078
77096
77114
77117
77136
77133
77158
77187
77178
77191
77185
77204
77169
77185
77181
77184
77200
77221
77212
77223
77217
77227
77182
77112
77077
77058
77067
77072
77069
77092
77104
77116
77143
77145
77162
77151
77151
77171
77154
77165
77166
77175
77210
77188
77203
77211
77195
77209
77227
77215
77203
77101
77059
77030
77010
77027
77036
77026
77077
77083
77088
77106
77128
77140
77136
77144
77141
77142
77151
77157
77152
77155
77184
77198
77193
77186
77202
77234
77220
77180
77117
77082
77081
77086
77089
77114
77142
77156
77164
77178
77185
77211
77211
77203
77221
77229
77228
77220
77230
77239
77256
77251
77245
77254
77275
77282
77284
77220
77160
77133
77106
77103
77120
77119
77120
77145
77146
77176
77197
77202
77218
77215
77223
77206
77215
77213
77202
77223
77227
77248
77230
77235
77238
77248
77230
77209
77155
77101
77087
77068
77092
77103
77103
77116
77144
77162
77163
77188
77179
77180
77173
77196
77160
77181
77185
77215
77199
77209
77219
77217
77224
77215
77168
77115
77063
77027
77045
77051
77043
77059
77067
77103
77111
77110
77100
77114
77127
77124
77115
77123
77140
77142
77133
77157
77147
77146
77148
77146
77136
77090
77028
76995
76979
76981
77007
77018
77013
77043
77033
77055
77077
77096
77078
77075
77063
77069
77076
77075
77090
77107
77096
77108
77102
77108
77107
77044
76994
76941
76935
76922
76933
76934
76966
76967
76988
77012
77039
77024
77013
77029
77035
77043
77064
77069
77054
77077
77087
77078
77057
77061
77081
77072
77008
76935
76909
76912
76901
76918
76909
76918
76944
76974
76972
76990
77013
76995
77005
77009
77014
77029
77018
77034
77030
77031
77042
77052
77039
77063
77037
77015
76922
76877
76863
76888
76867
76884
76885
76913
76928
76955
76963
76986
77010
76998
76987
76988
77003
77006
77014
77022
77045
77065
77056
77071
77084
77111
77098
77051
76982
76964
76944
76945
76950
76958
76976
77007
77016
77039
77057
77081
77072
77074
77089
77089
77108
77106
77107
77125
77125
77129
77133
77167
77167
77156
77165
77129
77079
77017
77006
77001
77009
76991
77023
77058
77044
77077
77094
77091
77085
77087
77099
77083
77082
77100
77104
77104
77105
77123
77124
77135
77143
77141
77106
77034
77009
76971
76946
76977
76985
76980
77014
77026
77031
77051
77046
77057
77056
77041
77057
77059
77058
77072
77072
77089
77082
77090
77111
77096
77083
77021
76971
76930
76897
76922
76927
76927
76931
76965
76961
76977
76991
77003
77007
76986
76984
77003
77007
77001
77023
77043
77025
77033
77028
77047
77028
76979
76930
76884
76886
76890
76872
76887
76913
76905
76935
76957
76956
76969
76986
76969
76977
76988
76996
77007
77006
77016
77014
77033
77029
77030
77043
77014
76949
76903
76875
76871
76872
76885
76869
76906
76914
76933
76949
76981
76967
76979
76989
76995
76994
77000
77002
77027
77012
76997
77029
77009
77036
77024
77026
76995
76923
76875
76855
76879
76880
76871
76894
76899
76944
76949
76963
76960
76975
76978
76984
76980
76983
76997
77001
77013
77034
77021
77037
77063
77068
77067
77070
77054
77009
76952
76905
76919
76921
76912
76936
76951
76960
76958
77003
77013
77034
77042
77033
77031
77033
77037
77063
77041
77075
77061
77063
77058
77088
77079
77091
77091
77093
77036
76974
76956
76927
76929
76939
76958
76959
76972
77001
77014
77025
77043
77023
77029
77023
77028
77026
77036
77042
77055
77063
77051
77073
77060
77059
77053
77044
76980
76925
76898
76905
76901
76926
76914
76930
76959
76968
76995
77008
77002
77033
77002
76991
76992
77005
77015
77015
77021
77016
77033
77039
77054
77053
77029
76965
76902
76861
76878
76870
76873
76898
76915
76924
76941
76965
76951
76982
76987
76988
76984
76965
77008
76987
76995
77001
77006
77007
77022
77023
77034
77022
76949
76896
76860
76847
76841
76851
76876
76888
76920
76930
76953
76950
76955
76965
76966
76957
76971
76988
76973
76990
77010
77016
77021
77030
77010
77016
77027
76993
76928
76881
76869
76844
76838
76865
76877
76889
76875
76916
76944
76960
76970
76968
76960
76959
76962
76979
76983
76995
76989
77000
77005
76994
77020
77021
77007
76993
76921
76884
76861
76835
76845
76854
76880
76902
76884
76912
76923
76935
76953
76962
76956
76949
76975
76975
76982
76985
76995
76996
76990
77003
77003
77023
77037
77026
76969
76940
76874
76861
76851
76870
76882
76881
76902
76915
76926
76953
76956
76984
76986
76979
76987
76987
76992
77013
77008
77026
77024
77038
77038
77027
77040
77038
77021
76981
76927
76899
76889
76889
76899
76918
76934
76952
76948
76980
76999
77010
77004
77004
77010
76997
77011
77009
77009
77018
77030
77018
77040
77043
77040
77034
76996
76925
76904
76876
76890
76873
76901
76912
76939
76917
76950
76968
76974
76959
76960
76947
76967
76943
76957
76970
76958
76977
76975
76996
76986
76987
76963
76904
76859
76839
76810
76819
76802
76828
76848
76843
76855
76886
76907
76915
76903
76918
76923
76931
76947
76930
76932
76956
76958
76947
76967
76979
76950
76925
76853
76814
76806
76790
76789
76817
76807
76854
76865
76867
76872
76902
76926
76996
77078
76834
76340
76095
75923
75799
75714
75592
75546
75483
75488
75480
75418
75340
75371
75392
75420
75435
75406
75390
75429
75348
75288
75231
75262
75198
75196
75176
75140
75155
75178
75235
75307
75347
75405
75445
75462
75485
75431
75344
75276
75229
75216
75216
75216
75202
75204
75227
75251
75252
75242
75228
75220
75232
75230
75225
75232
75217
75230
75447
75547
75599
75657
75686
75721
75761
75761
75683
75616
75601
75617
75636
75672
75722
75794
75857
75917
75965
76011
76029
76060
76059
76080
76091
76105
76125
76139
76172
76181
76180
76225
76246
76253
76281
76265
76177
76109
76070
76057
76022
75994
75994
75967
75950
75914
75887
75843
75718
75448
75204
75008
74890
74853
74828
74838
74831
74857
74873
74920
74935
74963
75013
74926
74819
74713
74675
74658
74614
74620
74640
74676
74725
74807
74864
74934
74993
75061
75092
75128
75129
75152
75158
75176
74938
74685
75009
75495
75821
75760
75608
75531
75371
75174
75011
74926
74841
74754
74726
74716
74721
74776
74797
74797
74824
74841
74838
74873
74889
74910
74918
74903
74935
74955
74963
74945
74875
74796
74748
74735
74736
74712
74735
74759
74783
74802
74847
74855
74866
74860
74867
74878
74853
74881
74885
74884
74861
74877
74867
74875
74892
74848
74758
74675
74610
74600
74607
74611
74608
74630
74639
74661
74650
74665
74678
74686
74671
74669
74667
74666
74687
74698
74693
74714
74713
74695
74696
74636
74558
74512
74488
74474
74492
74479
74457
74495
74479
74545
74519
74534
74523
74512
74532
74530
74519
74527
74531
74543
74548
74558
74577
74603
74609
74499
74850
75559
75696
75777
75853
75913
75972
76058
76107
76158
76182
76194
76223
76237
76232
76231
76246
76265
76263
76267
76261
76283
76286
76288
76316
76337
76311
76213
76075
76009
75965
75945
75943
75956
75974
75988
76003
76042
76096
76095
76092
76117
76088
76100
76068
76084
76093
76094
76080
76060
76007
75994
75968
75953
75907
75774
75690
75607
75562
75548
75556
75557
75598
75632
75660
75710
75721
75732
75727
75723
75712
75729
75720
75739
75737
75739
75764
75751
75765
75765
75763
75723
75597
75477
75389
75364
75344
75351
75368
75380
75404
75454
75488
75513
75533
75530
75525
75513
75514
75522
75519
75518
75536
75541
75557
75568
75581
75567
75488
75335
75231
75152
75136
75125
75162
75174
75195
75231
75247
75276
75287
75326
75331
75303
75321
75335
75340
75356
75372
75385
75417
75424
75457
75453
75428
75287
75190
75089
75067
75056
75087
75097
75129
75166
75225
75269
75295
75327
75345
75359
75377
75391
75420
75445
75440
75476
75494
75512
75525
75547
75590
75508
75378
75256
75168
75123
75124
75138
75149
75171
52893
75279
75313
75338
75383
75396
75407
75433
75435
75454
75466
75472
75498
75500
75539
75541
75555
75572
75562
75477
75342
75203
75148
75125
75107
75130
75145
75160
75210
75253
75287
75344
75336
75364
75370
75382
75395
75402
75430
75423
75461
75460
75494
75483
75510
75516
75501
75422
75276
75176
75099
75070
75084
75076
75116
75129
75168
75184
75228
75254
75301
75316
75321
75335
75324
75338
75367
75361
75370
75392
75405
75413
75437
75424
75454
75396
75280
75156
75067
75026
75005
75030
75061
75065
75104
75157
75193
75220
75255
75270
75276
75251
75289
75301
75304
75324
75335
75374
75374
75380
75408
75422
75427
75387
75267
75129
75052
75008
75010
75026
75037
75061
75090
75158
75191
75242
75254
75257
75276
75270
75287
75293
75316
75334
75362
75370
75388
75399
75425
75437
75400
75300
75180
75065
75017
74991
75000
75017
75038
75087
75129
75169
75218
75242
75275
75273
75287
75308
75318
75307
75339
75353
75371
75383
75390
75435
75434
75386
75248
75113
75007
74979
74956
74956
74995
75000
75050
75103
75150
75181
75207
75232
75254
75243
75279
75282
75310
75311
75354
75343
75376
75427
75420
75414
75308
75173
75055
74977
74944
74951
74983
74999
75043
75083
75108
75175
75207
75221
75239
75255
75267
75274
75291
75312
75336
75348
75353
75376
75400
75397
75379
75245
75097
74992
74954
74939
74949
74961
74993
75023
75069
75093
75147
75190
75204
75216
75218
75250
75239
75262
75269
75295
75326
75336
75349
75350
75388
75358
75278
75135
75008
74930
74913
74907
74925
74934
74973
75008
75049
75094
75124
75178
75172
75197
75205
75223
75246
75247
75262
75273
75302
75293
75314
75323
75336
75323
75212
75087
74981
74904
74894
74875
74908
74917
74949
74990
75025
75066
75117
75137
75140
75151
75154
75170
75174
75199
75198
75227
75246
75238
75261
75282
75295
75286
75202
75065
74958
74908
74885
74910
74921
74967
74991
75035
75093
75137
75158
75175
75162
75169
75206
75220
75223
75254
75279
75281
75293
75319
75320
75352
75366
75295
75183
75054
74961
74921
74937
74936
74982
75005
75053
75103
75152
75176
75245
75236
75241
75268
75259
75284
75303
75298
75316
75344
75357
75377
75402
75398
75304
75183
75056
74969
74942
74941
74964
74975
75009
75057
75096
75141
75175
75203
75223
75212
75223
75257
75260
75277
75290
75327
75328
75380
75385
75396
75386
75265
75137
75014
74948
74930
74950
74956
74987
75018
75068
75102
75176
75196
75213
75238
75248
75260
75271
75290
75304
75332
75312
75366
75356
75393
75381
75372
75259
75112
75016
74945
74907
74918
74945
74960
74981
75019
75085
75124
75160
75187
75230
75211
75219
75235
75253
75263
75275
75283
75307
75329
75338
75345
75362
75315
75196
75045
74962
74892
74901
74882
74916
74948
74951
75012
75047
75087
75118
75135
75182
75192
75174
75194
75206
75221
75238
75249
75258
75280
75302
75312
75307
75310
75227
75079
74961
74891
74863
74858
74863
74895
74901
74968
74977
75043
75073
75101
75093
75123
75135
75137
75142
75177
75175
75199
75218
75223
75236
75262
75256
75294
75284
75191
75050
74945
74881
74877
74883
74889
74931
74955
75013
75057
75113
75134
75154
75166
75169
75187
75198
75204
75227
75227
75254
75263
75268
75290
75311
75345
75337
75277
75141
75016
74950
74906
74914
74937
74959
75004
75044
75078
75162
75175
75191
75220
75225
75232
75250
75257
75276
75281
75314
75331
75364
75362
75401
75424
75403
75305
75151
75048
74966
74955
74958
74979
75034
75038
75093
75141
75194
75226
75231
75267
75271
75267
75284
75296
75330
75342
75346
75365
75395
75403
75434
75425
75352
75186
75075
74999
74960
74978
75011
75044
75067
75097
75156
75202
75243
75264
75284
75285
75309
75336
75338
75351
75346
75379
75395
75439
75429
75463
75464
75387
75252
75120
75034
74987
74994
74985
75013
75068
75079
75121
75178
75209
75240
75267
75282
75293
75312
75312
75328
75346
75368
75390
75379
75406
75404
75445
75388
75262
75129
75023
74978
74964
74951
74985
74984
75045
75084
75125
75152
75215
75231
75249
75266
75249
75269
75281
75306
75306
75311
75342
75350
75375
75369
75389
75337
75208
75072
74986
74928
74919
74932
74933
74979
74995
75056
75089
75116
75163
75180
75176
75184
75192
75191
75209
75215
75217
75232
75264
75257
75284
75291
75316
75285
75180
75041
74921
74866
74848
74843
74871
74893
74955
74992
75033
75071
75090
75123
75139
75115
75155
75171
75159
75181
75201
75218
75225
75260
75272
75311
75303
75286
75182
75049
74950
74878
74880
74886
74898
74939
74974
75026
75061
75109
75146
75164
75187
75184
75188
75205
75221
75236
75256
75276
75279
75297
75320
75343
75335
75239
75111
74995
74943
74930
74916
74925
74969
75001
75052
75098
75139
75191
75201
75218
75200
75224
75244
75256
75272
75290
75296
75314
75333
75362
75367
75340
75219
75083
74971
74930
74921
74963
74955
75005
75033
75086
75099
75152
75196
75221
75219
75206
75225
75232
75271
75281
75283
75310
75312
75351
75348
75359
75273
75133
75013
74945
74915
74938
74959
74983
75018
75052
75102
75148
75173
75224
75245
75249
75259
75268
75279
75302
75331
75346
75362
75360
75382
75408
75363
75249
75099
75009
74969
74940
74931
74955
74990
75024
75073
75106
75145
75178
75188
75213
75223
75232
75241
75258
75281
75274
75318
75320
75355
75363
75379
75387
75278
75139
75011
74955
74932
74909
74931
74936
74978
75027
75056
75101
75148
75167
75180
75211
75196
75189
75213
75228
75230
75244
75274
75285
75289
75314
75336
75342
75301
75156
75017
74926
74879
74878
74865
74897
74923
74940
74977
75032
75076
75094
75115
75129
75116
75138
75134
75144
75143
75156
75171
75197
75198
75219
75236
75254
75249
75191
75065
74939
74855
74822
74809
74838
74864
74892
74926
74991
75020
75058
75075
75096
75096
75122
75105
75134
75162
75149
75191
75196
75210
75219
75245
75269
75273
75209
75086
74962
74866
74842
74832
74852
74869
74908
74963
75005
75043
75099
75121
75122
75151
75159
75148
75186
75181
75218
75235
75264
75284
75291
75320
75334
75310
75240
75095
74969
74876
74875
74862
74893
74924
74964
75022
75066
75126
75151
75169
75200
75213
75193
75226
75239
75236
75285
75306
75299
75330
75353
75366
75376
75297
75170
75041
74960
74916
74936
74953
74967
75016
75058
75090
75133
75195
75230
75240
75248
75263
75276
75296
75320
75320
75337
75353
75401
75396
75439
75456
75400
75266
75140
75036
74991
74966
74986
75004
75045
75070
75127
75163
75211
75251
75274
75299
75301
75300
75306
75331
75336
75360
75383
75403
75421
75446
75442
75455
75425
75293
75141
75049
75007
74990
74995
75018
75046
75076
75109
75183
75207
75223
75256
75261
75272
75288
75295
75301
75313
75328
75344
75348
75372
75376
75410
75438
75424
75331
75191
75052
74994
74983
74961
74964
74992
75012
75051
75091
75137
75159
75212
75220
75234
75216
75230
75241
75243
75259
75257
75285
75294
75292
75311
75315
75340
75329
75263
75102
74985
74915
74875
74866
74898
74907
74931
74964
74992
75044
75083
75117
75129
75147
75158
75179
75183
75183
75222
75236
75247
75274
75296
75306
75322
75337
75293
75185
75058
74950
74956
74930
74951
74963
75010
75041
75093
75133
75169
75191
75207
75188
75207
75207
75229
75270
75296
75335
75335
75356
75359
75343
75351
37330
75215
75063
74927
74864
74826
74796
74819
74820
74866
74896
74926
74961
74978
75003
75006
75016
75009
74988
75027
75038
75051
75091
75107
75153
75162
75180
75210
75172
75089
74986
74883
74827
74791
74793
74785
74822
74838
74859
74882
74895
74935
74968
74948
74949
74944
74927
74910
74898
74922
74968
75001
75037
75058
75064
75038
74921
74846
74797
74788
74790
74790
74799
74786
74829
74858
74899
74932
74955
74957
74983
75017
75037
75042
75036
75057
75056
75071
75072
75092
75112
75065
74980
74849
74765
74729
74715
74685
74739
74782
74828
74863
74922
74950
74983
75024
75025
75034
75049
75071
75095
75113
75138
75160
75167
75178
75184
75133
75024
74903
74818
74770
74751
74764
74785
74831
74847
74898
74945
74983
75029
75035
75073
75091
75093
75060
75086
75108
75134
75129
75161
75177
75182
75115
75026
74905
74842
74810
74799
74800
74814
74821
74853
74890
74920
74973
74982
75012
75013
75021
75012
75016
75026
75026
75051
75048
75049
75031
74956
74847
74751
74684
74658
74651
74656
74676
74719
74771
74822
74845
74867
74853
74834
74831
74794
74801
74756
74742
74698
74679
74626
74565
74456
74312
74190
74117
74076
74083
74062
74085
74095
74115
74126
74128
74120
74134
74201
74253
74295
74349
74376
74422
74470
74505
74532
74520
74432
74339
74273
74209
74202
74259
74359
74421
74447
74477
74479
74492
74514
74554
74596
74638
74632
74641
74664
74691
74698
74705
74724
74704
74633
74576
74545
74549
74527
74534
74530
74564
74583
74676
74723
74825
74891
74949
75037
75070
75121
75161
75188
75217
75263
75274
75177
75063
74947
74878
74820
74775
74759
74768
74810
74832
74866
74885
74890
74875
74867
74853
74846
74845
74848
74854
74873
74904
74898
74822
74672
74563
74486
74414
74392
74380
74415
74510
74581
74670
74735
74809
74847
74857
74871
74886
74878
74891
74875
74868
74844
74791
74690
74557
74427
74356
74306
74289
74311
74312
74341
74363
74379
74422
74465
74492
74526
74533
74554
74565
74579
74601
74622
74624
74593
74523
74407
74346
74296
74295
74299
74311
74352
74381
74414
74448
74489
74524
74544
74561
74551
74570
74579
74574
74581
74544
74510
74475
74378
74261
74174
74117
74054
74010
74018
74031
74033
74049
74079
74104
74153
74167
74192
74255
74287
74327
74371
74426
74496
74521
74481
74436
74390
74372
74355
74320
74347
74341
74356
74381
74394
74411
73314
73547
73777
73943
74010
74059
74022
73994
73994
74008
73960
73911
73847
73812
73802
73812
73837
73869
73876
73915
73934
73928
73940
73969
73992
73990
73986
74021
74014
74015
74026
74004
73962
73915
73850
73850
73820
73800
73821
73854
73894
73927
73950
73971
74018
74040
74055
74086
74103
74094
74102
74058
74043
74042
74029
73942
73881
73847
73795
73757
73767
73754
73756
73767
73775
73802
73804
73824
73841
73868
73907
73935
73971
73986
74016
73993
73940
73876
73830
73807
73805
73819
73810
73849
73892
73905
73946
73971
73975
74002
74008
74029
74046
74058
74081
74074
74105
74098
74048
74010
73977
73975
73972
73964
73988
74003
74038
74060
74085
74119
74139
74147
74159
74157
74185
74190
74201
74200
74186
74154
74082
74059
74042
74020
74036
74057
74084
74093
74128
74158
74177
74198
74217
74218
74214
74225
74254
74252
74257
74261
74251
74194
74139
74083
74056
74052
74023
74072
74078
74098
74118
74141
74174
74188
74212
74240
74261
74298
74329
74360
74386
74392
74364
74309
74281
74233
74191
74205
74176
74146
74098
74081
74064
74050
74031
74040
74079
74117
74192
74259
74311
74350
74339
74230
74093
73972
73912
73895
73892
73918
73922
73901
73910
73873
73872
73885
73870
73885
73921
73971
74053
74141
74228
74275
74263
74182
74139
74116
74061
74042
74018
73949
73873
73813
73774
73738
73781
73863
73972
74086
74239
74423
74645
74830
74918
74978
74891
74852
74809
74790
74773
74747
74656
74459
74169
73770
73423
73412
73609
73859
74219
74471
74558
74506
74426
74288
74089
73940
73873
73850
73922
73994
74014
74010
73982
73959
73973
73932
73893
73820
73700
73533
73405
73296
73303
73327
73379
73496
73595
73398
73375
73384
73363
73385
73375
73364
73332
73310
73264
73155
73079
72996
72967
72982
73030
73063
73135
73223
73283
73336
73334
73299
73246
73198
73179
73159
73130
73120
73020
72893
72776
72694
72702
72735
72767
72859
72937
73064
73152
73257
73288
73298
73268
73231
73217
73241
73255
73206
73084
72902
72774
72695
72656
72660
72628
72623
72658
72735
72843
72935
73052
73111
73124
73123
73128
73135
73111
72970
72807
72689
72609
72569
72520
72491
72460
72461
72518
72634
72778
72939
73057
73101
72991
72842
72745
72670
72552
72325
72156
72052
72011
72016
72101
72207
72332
72465
72559
72692
72814
72908
72976
72991
72952
72906
72878
72867
72815
72683
72589
72518
72518
72559
72595
72662
72712
72803
72894
73013
73117
73217
73301
73279
73212
73135
73063
73013
72999
72930
72778
72647
72586
72608
72645
72701
72756
72833
72906
72985
73065
73141
73139
73074
73017
72972
72970
72983
72967
72987
72948
72919
72820
72753
72717
72758
72814
72860
72865
72885
72906
72899
72898
72917
72884
72823
72822
73899
79724
73602
75576
74787
75258
74272
74113
76646
76542
75797
75418
75357
75215
75097
75177
75096
74974
74914
74958
74764
74636
74697
74731
74905
75025
74921
74941
74979
74977
75027
75062
74995
74586
74328
74196
74073
74030
74078
74164
74231
74309
74345
74417
74514
74596
74708
74654
74609
74652
74632
74571
74464
74400
74360
74270
74249
74343
74531
74770
74862
75074
75450
76184
76436
76043
75599
75444
75467
75578
75639
75583
75448
75350
75292
75358
75427
75524
75629
75566
75458
75415
75418
75333
75129
75000
75007
75096
75179
75180
75138
74996
74869
74793
74797
74812
74760
74806
75239
75634
75605
75455
75288
75236
75097
74702
74641
74707
74841
74908
74963
75053
75092
75120
75200
75182
75344
75371
75361
75390
75458
75491
75593
75693
75781
75738
75635
75550
75496
75493
75548
75573
75635
75670
75667
75711
75740
75787
75885
75985
76103
76175
76206
76237
76310
76352
76275
76050
75936
75906
75903
75954
76022
76103
76132
76223
76304
76336
76372
76425
76422
76450
76509
76605
76639
76643
76602
76537
76400
76310
76290
76323
76394
76480
76556
76656
76764
76793
76798
76737
76690
76653
76638
76537
76441
76364
76281
76220
76226
76198
76113
76230
76429
76436
76420
76352
76332
76372
76451
76519
76524
76526
76505
76503
76485
76512
76510
76602
76729
76779
76757
76782
76789
76815
76748
76664
76629
76576
76593
76611
76634
76683
76716
76722
76725
76728
76725
76740
76720
76773
76779
76812
76841
76800
76479
76154
75973
75860
75813
75792
75827
75884
75960
75950
75896
75836
75747
75781
75816
75825
75814
75742
75697
75657
75651
75661
75637
75686
75748
75840
75843
75829
75760
75794
75863
76004
76127
76252
76324
76400
76512
76810
76986
76973
76932
76881
76880
76887
76854
76751
76549
76385
76295
76238
76177
76193
76224
76113
75966
75900
75876
75874
75731
75608
75406
75286
75218
75090
74977
74952
74924
74941
74973
75011
75084
75148
75250
75293
75178
75069
75009
75084
75456
76014
76169
76121
76081
76146
76295
76273
76174
76117
76165
76227
76334
76424
76512
76570
76635
76663
76731
76793
76846
76908
76904
76876
76852
76876
76950
77029
76997
76952
76913
76871
76910
76927
76945
76936
76946
76987
76997
77012
77080
77120
77137
77094
76998
77004
76984
77013
77033
76881
76679
76488
76403
76376
76384
76468
76565
76620
76654
76663
76697
76742
76799
76785
76739
76763
76824
76850
76894
76893
76802
76736
76713
76691
76692
76691
76699
76722
76764
76828
76981
77153
77294
77359
77428
77487
77520
77541
77563
77571
77537
77423
77249
77137
77101
77150
77249
77289
77306
77319
77352
77406
77449
77483
77441
77377
77371
77374
77384
77418
77412
77368
77303
77215
77088
77017
76981
76883
76839
76814
76859
76865
76919
76995
77002
77022
77033
77041
77088
77140
77187
77168
77031
76883
76796
76734
76762
76846
76886
76944
77019
77050
77094
77132
77114
77156
77143
77109
77073
77050
77068
77083
77080
77057
77003
76934
76936
76943
76976
77014
77060
77118
77164
77206
77251
77253
77288
77326
77340
77375
77403
77455
77478
77470
77382
77313
77272
77263
77225
77253
77265
77278
77317
77336
77362
77392
77390
77420
77405
77356
77299
77221
77127
76912
76631
76377
76263
76233
76178
76200
76194
76199
76180
76136
76166
76234
76334
76394
76438
76408
76319
76368
76457
76387
76150
75922
75696
75462
75231
75129
75180
75376
75577
75695
75741
75698
75463
75310
75257
75216
75251
75300
75310
75282
75130
75011
75017
75181
75414
75588
75720
75898
76025
75870
75558
75231
74814
74253
74120
74102
74183
74639
75059
75436
75777
75749
75177
74254
73371
73362
73455
73447
73630
74153
74392
74599
74698
74708
74639
74505
74423
74578
74786
75177
75384
75408
75391
75427
75483
75529
75599
75675
75768
75855
75911
75973
76020
76062
76111
76095
76070
76089
76095
76095
76024
75886
75744
75697
75710
75781
75836
75955
76018
76100
76175
76224
76261
76286
76347
76385
76398
76406
76445
76453
76396
76264
76124
76057
76018
76015
76049
76083
76116
76126
76105
76050
76018
75954
75900
75855
75810
75762
75727
75704
75623
75439
75168
75054
74969
74909
74919
74886
74861
74827
74820
74809
74748
74718
74685
74647
74638
74581
74563
74568
74544
74445
74293
74189
74154
74159
74158
74181
74228
74283
74311
74318
74282
74206
74126
74068
73985
73910
73805
73764
73764
73768
73627
73514
73485
73520
73610
73739
73830
73881
74001
74137
74238
74253
74287
74342
74373
74392
74437
74476
74538
74616
74623
74572
74471
74449
74482
74535
74621
74626
74647
74609
74568
74456
74373
74246
74115
73845
73660
73490
73293
73111
72845
72571
72330
72050
71822
71735
71614
71427
71372
71634
72071
72517
72819
73034
73155
73207
73215
73178
73079
72946
72742
72693
72589
72484
72426
72388
72523
72731
72817
72842
72842
75216
74345
73319
71095
72366
73485
73653
72006
70793
70990
71538
72025
72536
73388
74416
75106
75818
77831
76470
78330
76777
76144
75557
75662
76244
76464
75995
75094
75149
76861
76288
73220
73836
74029
74028
73919
73855
73762
73709
73775
73883
74042
74212
74413
74541
74639
74732
74854
75049
75191
75241
75304
75327
75321
75328
75286
75118
75017
75013
74994
74964
75020
75090
75160
75260
75202
75174
75180
75142
75104
75097
75072
75059
75052
75030
75024
74982
74769
74730
74644
74618
74687
74784
74898
75035
75149
75210
75279
75336
75432
75475
75559
75621
75684
75770
75862
75931
75866
75724
75722
75774
75832
75882
75963
76075
76143
76232
76275
76342
76357
76350
76352
76344
76286
76121
76014
75881
75696
75390
75164
75083
75052
75017
75094
75349
75552
75594
75657
75811
75899
75839
75788
75791
75807
75733
75597
75498
75512
75270
75003
74925
74869
74761
74790
74978
75126
75191
75216
75281
75334
75307
75341
75439
75498
75475
75531
75650
75711
75582
75471
75456
75539
75576
75602
75634
75665
75723
75758
75789
75771
75775
75773
75805
75790
75775
75824
75862
75843
75697
75532
75390
75287
75232
75098
75000
74933
74894
74890
74859
74825
74837
74850
74870
74887
74877
74878
74937
74869
74792
74776
74788
74808
74888
74955
75044
75162
75271
75362
75413
75475
75479
75470
75514
75553
75549
75641
75720
75730
75667
75654
75675
75720
75744
75754
75795
75891
75934
75959
75974
76003
76032
76057
76103
76143
76205
76282
76304
76263
76211
76113
76049
76046
76056
75981
75965
75894
75828
75645
75379
75324
75289
75303
75337
75467
75636
75804
75848
75784
75670
75665
75644
75644
75678
75733
75713
75667
75709
75628
75488
75382
75309
75344
75329
75313
75322
75352
75311
75197
75130
75134
75190
75268
75360
75410
75456
75515
75550
75639
75696
75706
75724
75764
75781
75803
75880
75883
75854
75804
75831
75918
75954
75933
75983
76028
76057
76081
76132
76133
76157
76204
76189
76094
76038
75909
75749
75663
75615
75543
75513
75519
75553
75582
75546
75557
75622
75693
75646
75629
75674
75762
75792
75873
75936
76022
76057
76011
75998
76054
76080
76082
76087
76114
76167
76182
76168
76164
76190
76168
76169
76185
76222
76247
76290
76302
76262
76226
76189
76163
76189
76211
76243
76254
76291
76310
76324
76370
76404
76431
76438
76473
76522
76527
76530
76499
76416
76312
76258
76228
76118
75974
75901
75856
75836
75789
75663
75495
75379
75340
75383
75480
75610
75799
75903
75919
75968
75923
75930
75907
75865
75809
75781
75754
75708
75694
75641
75640
75644
75647
75635
75654
75605
75540
75489
75568
75561
75547
75516
75521
75569
75581
75542
75499
75479
75514
75544
75548
75582
75646
75741
75744
75724
75692
75688
75734
75770
75789
75860
75913
75944
75901
75902
75886
75759
75569
75428
75284
75174
75076
74912
74678
74652
74616
74562
74549
74655
74806
74781
74756
74886
75164
75242
75250
75280
75359
75393
75416
75408
75380
75350
75429
75586
75809
76010
76159
76198
76262
76292
76336
76379
76382
76455
76563
76578
76597
76587
76615
76621
76583
76554
76583
76692
76722
76767
76788
76839
76879
76879
76855
76842
76866
76847
76909
76805
76671
76500
76350
76262
76267
76280
76288
76307
76341
76340
76378
76463
76633
76734
76721
76738
76820
76856
76795
76665
76637
76641
76577
76503
76484
76451
76393
76297
76297
76263
76227
76208
76213
76172
76133
76130
76108
76076
76049
76028
76067
76092
76118
76144
76137
76145
76159
76158
76148
76176
76255
76314
76290
76284
76323
76297
76265
76233
76291
76350
76445
76526
76590
76658
76721
76735
76760
76790
76787
76794
76806
76779
76693
76539
76446
76496
76513
76491
76567
76678
76701
76665
76633
76648
76625
76564
76537
76566
76685
76635
76515
76427
76388
76308
76311
76357
76394
76422
76470
76533
76615
76638
76601
76612
76628
76631
76634
76630
76610
76571
76538
76511
76499
76517
76596
76617
76618
76643
76619
76606
76595
76609
76630
76691
76698
76698
76670
76617
76614
76603
76624
76666
76696
76712
76742
76757
76721
76710
76728
76728
76718
76728
76727
76668
76563
76477
76474
76519
76523
76506
76480
76498
76436
76339
76313
76313
76286
76228
76201
76218
76208
76073
76002
76055
76097
76088
76083
76122
76158
76141
76107
76083
76099
76136
76159
76165
76184
76224
76168
76098
76095
76131
76256
76270
76283
76328
76380
76414
76429
76426
76434
76466
76500
76523
76550
76535
76445
76339
76274
76204
76139
76141
76159
76218
76168
76136
76191
76179
76168
76130
76172
76207
76211
76110
76020
76035
76002
75919
75991
76069
76093
76090
76074
76183
76171
76183
76244
76272
76308
76301
76278
76253
76265
76237
76195
76254
76321
76348
76338
76359
76425
76449
76412
76392
76463
76502
76510
76493
76426
76400
76387
76393
76378
76331
76215
76078
75959
75967
75911
75856
75788
75742
75759
75828
75942
75964
75971
76034
76080
76127
76261
76324
76328
76326
76326
76361
76372
76318
76280
76355
76395
76298
76085
75997
76006
75980
75870
75888
76018
76103
76143
76185
76188
76172
76143
76135
76165
76204
76204
76098
76037
76025
75993
75962
75963
75970
76040
76116
76163
76180
76172
76160
76178
76218
76243
76256
76213
76181
76226
76255
76281
76313
76355
76415
76405
76338
76346
76345
76286
76286
76294
76286
76344
76373
76337
76328
76314
76414
76536
76571
76633
76698
76767
76775
76759
76734
76785
76847
76845
76846
76795
76670
76553
76473
76481
76552
76563
76573
76579
76598
76603
76600
76617
76644
76641
76636
76619
76556
76457
76430
76365
76369
76424
76456
76451
76432
76473
76478
76495
76486
76496
76523
76536
76575
76538
76464
76349
76248
76005
75917
75813
75796
75884
75977
76131
76234
76415
76488
76533
76566
76632
76577
76502
76470
76507
76523
76553
76597
76670
76709
76670
76631
76647
76642
76574
76549
76537
76565
76525
76460
76443
76456
76431
76421
76492
76516
76551
76496
76521
76544
76551
76557
76582
76607
76616
76556
76482
76478
76502
76505
76524
76556
76587
76615
76587
76620
76616
76645
76674
76662
76686
76724
76689
76628
76584
76595
76634
76656
76713
76733
76762
76754
76768
76759
76755
76749
76768
76775
76786
76728
76663
76642
76653
76648
76644
76719
76722
76639
76601
76597
76600
76540
76530
76554
76567
76528
76390
76322
76284
76280
76274
76299
76331
76323
76338
76359
76331
76322
76322
76349
76357
76373
76359
76286
76239
76244
76262
76243
76273
76315
76344
76354
76346
76337
76331
76358
76354
76341
76384
76361
76325
76277
76301
76311
76368
76400
76437
76478
76494
76513
76522
76525
76514
76524
76519
76540
76519
76470
76424
76409
76402
76454
76472
76435
76427
76413
76405
76402
76416
76423
76429
76433
76442
76334
76270
76234
76227
76242
76254
76270
76274
76255
76273
76255
76257
76248
76251
76240
76233
76230
76159
76114
76078
76073
76082
76115
76135
76135
76132
76097
76086
76059
76059
76042
76055
76044
76033
75985
75955
75956
75979
76014
76050
76084
76143
76150
76182
76200
76206
76221
76211
76173
76104
75987
75900
75807
75776
75738
75739
75718
75687
75643
75640
75676
75715
75749
75755
75771
75807
75818
75784
75675
75663
75656
75669
75658
75694
75739
75726
75724
75734
75750
75772
75779
75774
75756
75775
75697
75625
75658
75702
75723
75731
75747
75747
75757
75796
75760
75732
75754
75755
75773
75834
75786
75777
75742
75763
75810
75868
75895
75918
75963
75991
76002
75989
75985
76017
76055
76058
76069
76092
76012
75992
75978
75997
76070
76092
76077
76124
76146
76148
76136
76172
76185
76128
76077
76018
75889
75823
75700
75550
75495
75469
75451
75392
75337
75300
75298
75279
75270
75266
75254
75249
75199
75114
75075
75072
75068
75101
75103
75146
75145
75145
75155
75170
75177
75165
75183
75168
75144
75114
75102
75088
75090
75120
75124
75159
75263
75375
75431
75466
75478
75516
75584
75625
75671
75669
75614
75679
75704
75766
75790
75847
75866
75896
75894
75921
75886
75850
75767
75741
75704
75664
75587
75474
75405
75424
75441
75475
75508
75548
75605
75616
75575
75601
75579
75459
75400
75388
75346
75252
75191
75203
75223
75228
75220
75217
75237
75228
75256
75243
75234
75288
75341
75380
75414
75358
75335
75303
75276
75307
75327
75347
75346
75355
75365
75345
75329
75324
75362
75377
75368
75367
75282
75261
75198
75169
75213
75222
75261
75300
75308
75336
75364
75332
75336
75303
75311
75272
75201
75033
74867
74697
74602
74561
74532
74551
74547
74542
74541
74578
74585
74586
74616
74655
74661
74624
74584
74551
74588
74570
74600
74578
74524
74421
74439
74424
74410
74398
74386
74415
74407
74513
74591
74606
74800
74937
75092
75289
75454
75594
75616
75678
75691
75735
75825
75903
75979
75981
75954
75930
75951
76006
76079
76133
76168
76213
76195
76191
76209
76216
76219
76240
76256
76271
76226
76170
76179
76158
76202
76239
76274
76322
76318
76329
76326
76331
76331
76349
76336
76384
76352
76304
76264
76262
76286
76315
76334
76342
76357
76348
76306
76264
76239
76204
76186
76198
76267
76287
76338
76370
76397
76440
76525
76579
76599
76647
76647
76642
76639
76635
76642
76648
76638
76608
76581
76523
76506
76482
76522
76566
76600
76633
76658
76681
76692
76711
76725
76732
76753
76761
76771
76757
76735
76773
76790
76853
76910
76944
76979
77003
77004
76990
76936
76966
76978
77001
77032
77006
76974
76964
76976
77005
77051
77101
77162
77195
77233
77289
77340
77382
77410
77445
77497
77518
77489
77490
77530
77558
77612
77669
77738
77781
77846
77884
77933
77967
77995
78012
78042
78074
78087
78076
78018
78036
78051
78101
78133
78173
78230
78271
78297
78331
78333
78388
78403
78425
78443
78427
78393
78424
78440
78427
78467
78506
78548
78558
78575
78588
78580
78599
78592
78597
78595
78560
78502
78466
78456
78468
78456
78478
78505
78530
78525
78544
78581
78583
78603
78611
78615
78591
78559
78536
78528
78534
78535
78554
78556
78602
78621
78641
78639
78653
78645
78662
78652
78659
78602
78581
78569
78547
78566
78592
78631
78637
78680
78724
78748
78763
78779
78803
78836
78848
78844
78808
78761
78759
78765
78778
78826
78841
78904
78930
78949
78967
79008
79034
79042
79052
79059
79049
79006
78978
78975
78965
78993
78998
79040
79071
79083
79105
79152
79137
79174
79187
79209
79189
79183
79160
79128
79121
79144
79161
79168
79216
79251
79266
79297
79285
79308
79316
79327
79323
79302
79277
79209
79197
79193
79201
79222
79244
79248
79297
79289
79285
79294
79298
79316
79312
79293
79254
79234
79204
79205
79185
79210
79253
79265
79298
79348
79360
79403
79395
79404
79409
79425
79403
79365
79338
79311
79308
79315
79328
79351
79365
79372
79390
79408
79418
79390
79420
79417
79399
79328
79297
79235
79204
79211
79207
79203
79203
79183
79181
79159
79115
79095
79052
79038
78978
78912
78827
78751
78720
78714
78717
78731
78743
78698
78706
78698
78673
78656
78597
78527
78506
78450
78383
78322
78283
78267
78270
78281
78304
78324
78352
78342
78353
78347
78378
78418
78421
78470
78458
78397
78372
78383
78410
78433
78441
78459
78477
78468
78465
78457
78456
78439
78444
78446
78407
78336
78293
78245
78196
78181
78186
78166
78094
78000
77909
77713
77676
77713
77813
77861
77861
77783
77721
77626
77562
77515
77467
77427
77444
77435
77456
77463
77478
77470
77488
77494
77494
77516
77435
77390
77345
77374
77388
77405
77446
77487
77543
77583
77644
77656
77665
77676
77694
77677
77633
77538
77493
77424
77383
77353
77329
77342
77358
77405
77394
77415
77390
77397
77414
77426
77375
77293
77187
77131
77061
77009
77032
77069
77068
77073
77110
77117
77125
77150
77189
77238
77280
77287
77215
77127
77108
77083
77069
77088
77099
77145
77094
77063
77063
77081
77098
77130
77126
77168
77188
77102
77033
77005
76967
76952
76936
76959
76979
77007
77049
77071
77114
77134
77162
77195
77215
77263
77261
77178
77111
77051
77054
77049
77018
77066
77077
77121
77144
77176
77168
77217
77233
77240
77219
77231
77250
77217
77171
77114
77065
77085
77116
77166
77232
77264
77293
77339
77399
77404
77346
77272
77171
77108
77138
77133
77037
76864
76739
76638
76603
76537
76554
76596
76732
76807
76894
76845
76810
76803
76835
76873
76885
76929
76962
76979
76949
76873
76840
76828
76830
76866
76884
76931
76987
77051
77101
77160
77217
77250
77273
77317
77351
77402
77447
77455
77410
77301
77240
77229
77220
77245
77282
77310
77353
77377
77414
77455
77478
77530
77507
77559
77576
77596
77633
77647
77639
77556
77477
77443
77420
77420
77441
77468
77510
77545
77585
77588
77592
77622
77617
77638
77639
77650
77666
77706
77725
77690
77634
77547
77518
77511
77508
77567
77589
77615
77631
77655
77653
77648
77678
77684
77687
77709
77725
77755
77768
77769
77688
77619
77566
77545
77574
77589
77604
77635
77651
77662
77636
77576
77623
77627
77615
77610
77611
77629
77647
77612
77511
77453
77424
77405
77423
77429
77437
77456
77453
77468
77489
77512
77492
77523
77541
77566
77588
77625
77615
77586
77487
77412
77394
77377
77373
77394
77401
77442
77477
77481
77517
77547
77555
77547
77591
77607
77622
77666
77668
77634
77547
77478
77459
77431
77447
77476
77489
77517
77546
77570
77592
77617
77614
77615
77620
77622
77648
77661
77688
77697
77651
77554
77475
77465
77489
77475
77509
77547
77559
77614
77634
77659
77691
77724
77665
77697
77719
77772
77807
77846
77847
77738
77686
77659
77655
77652
77687
77718
77771
77801
77826
77869
77871
77888
77907
77896
77921
77966
77975
77976
77974
77961
77881
77827
77795
77779
77815
77824
77858
77879
77922
77912
77922
77943
77953
77961
77996
77993
78016
78018
78044
78048
78009
77928
77871
77865
77838
77829
77853
77856
77871
77895
77914
77910
77928
77946
77953
77960
77986
78020
78041
78051
78035
77956
77895
77825
77837
77827
77841
77848
77905
77917
77968
78017
78018
78051
78099
78128
78155
78198
78215
78273
78258
78251
78164
78140
78126
78122
78141
78164
78227
78286
78327
78362
78398
78420
78451
78483
78485
78553
78559
78584
78594
78600
78540
78487
78474
78469
78499
78526
78589
78675
78730
78781
78853
78920
78930
78975
78958
79023
79025
79046
79058
79094
79032
78979
78942
78925
78924
78943
79000
79028
79076
79125
79163
79193
79218
79246
79275
79283
79291
79327
79327
79333
79355
79328
79271
79181
79154
79141
79144
79130
79168
79190
79191
79198
79215
79202
79209
79229
79221
79225
79240
79240
79237
79234
79242
79227
79152
79107
79108
79107
79119
79096
79121
79141
79152
79175
79189
79204
79224
79221
79237
79235
79244
79268
79275
79297
79276
79219
79149
79119
79091
79106
79104
79135
79152
79186
79211
79272
79301
79320
79339
79362
79388
79435
79421
79459
79459
79508
79490
79427
79347
79295
79245
79208
79153
79115
79071
79039
78965
78925
78893
78864
78860
78862
78889
78911
78898
78907
78952
79024
79004
78943
78873
78941
78994
79068
79173
79242
79315
79380
79414
79449
79443
79445
79446
79446
79440
79442
79454
79437
79442
79417
79368
79274
79242
79238
79203
79214
79210
79220
79217
79242
79264
79245
79249
79242
79252
79252
79230
79248
79263
79261
79241
79205
79155
79091
79043
79044
79021
79040
79056
79067
79088
79112
79098
79111
79139
79123
79150
79157
79144
79145
79152
79171
79158
79077
79006
78991
78985
78969
79002
78986
79024
79041
79042
79070
79055
79073
79080
79077
79081
79053
79058
79093
79098
79079
79060
79009
78932
78895
78890
78914
78922
78918
78951
78974
78994
79015
79001
79012
79044
79036
79040
79051
79042
79052
79038
79021
78993
78959
78887
78889
78900
78937
78964
78984
79021
79030
79030
79057
79049
79039
79054
79044
79059
79098
79097
79087
79086
79066
79065
79032
78936
78861
78828
78821
78800
78801
78827
78834
78849
78882
78898
78916
78918
78930
78941
78979
78977
78982
79000
78983
78997
78981
78931
78846
78776
78798
78797
78811
78823
78864
78862
78871
78896
78865
78884
78865
78879
78867
78881
78884
78879
78877
78887
78866
78787
78717
78665
78681
78679
78673
78670
78693
78696
78717
78735
78744
78718
78727
78737
78745
78749
78749
78753
78759
78774
78734
78671
78598
78547
78542
78548
78568
78567
78593
78611
78610
78626
78617
78633
78634
78628
78642
78631
78662
78669
78648
78647
78603
78526
78462
78425
78436
78426
78423
78438
78443
78503
78508
78506
78520
78530
78528
78529
78541
78566
78555
78586
78561
78566
78565
78476
78388
78357
78338
78364
78373
78364
78390
78422
78410
78439
78459
78467
78456
78484
78473
78500
78510
78504
78512
78522
78522
78485
78395
78337
78297
78297
78302
78318
78341
78365
78391
78399
78425
78420
78438
78432
78425
78444
78436
78449
78456
78453
78449
78474
78439
78375
78307
78256
78218
78218
78232
78244
78247
78271
78291
78298
78309
78322
78311
78319
78312
78337
78338
78342
78350
78370
78364
78378
78324
78239
78192
78151
78155
78136
78145
78171
78211
78217
78232
78236
78224
78245
78258
78280
78293
78273
78286
78277
78284
78279
78231
78199
78108
78053
77986
77988
77961
77992
78023
78036
78052
78090
78105
78097
78091
78097
78115
78112
78129
78124
78132
78136
78132
78109
78055
77938
77893
77872
77874
77891
77877
77902
77933
77957
77972
77994
77990
77995
78016
78045
78041
78043
78074
78086
78100
78107
78066
77991
77918
77889
77871
77885
77886
77908
77934
77951
77974
77986
78008
78023
78010
78022
78048
78029
78051
78074
78068
78092
78090
78038
77958
77890
77846
77843
77833
77868
77865
77869
77883
77904
77935
77945
77946
77938
77958
77968
77970
77989
77964
77996
78016
77996
78007
77912
77854
77801
77792
77817
77805
77815
77845
77878
77870
77878
77896
77904
77926
77936
77957
77972
77992
77989
78008
78015
78010
78033
77998
77908
77840
77791
77788
77781
77812
77818
77863
77889
77909
77932
77956
77957
77941
77948
77954
77960
77996
78006
77993
77996
78020
78028
77967
77881
77827
77819
77844
77853
77887
77909
77954
77955
77979
77988
78008
77999
77993
78003
78016
78044
78031
78055
78069
78092
78123
78042
77981
77915
77919
77886
77899
77932
77930
77956
77975
78010
78034
78055
78065
78076
78109
78139
78142
78181
78210
78222
78233
78233
78158
78118
78079
78089
78120
78131
78146
78200
78236
78245
78295
78319
78359
78354
78385
78405
78423
78454
78467
78478
78501
78506
78487
78420
78361
78324
78324
78320
78337
78344
78372
78384
78416
78430
78472
78487
78482
78467
78508
78482
78510
78528
78526
78541
78542
78517
78441
78336
78329
78300
78306
78322
78331
78336
78380
78377
78401
78423
78410
78415
78409
78411
78423
78448
78436
78459
78447
78478
78464
78430
78344
78290
78243
78246
78230
78249
78267
78278
78317
78317
78318
78305
78309
78314
78326
78344
78319
78340
78340
78359
78354
78368
78351
78302
78217
78168
78140
78140
78161
78162
78187
78212
78236
78263
78263
78279
78271
78281
78291
78292
78313
78327
78327
78361
78346
78349
78308
78239
78151
78132
78102
78135
78133
78173
78195
78216
78238
78247
78244
78240
78263
78261
78270
78283
78291
78297
78316
78303
78299
78260
78166
78094
78052
78043
78065
78060
78092
78105
78131
78159
78150
78159
78161
78154
78187
78186
78179
78201
78197
78231
78247
78229
78183
78106
78069
78018
78013
78016
78063
78060
78093
78110
78151
78139
78143
78149
78145
78151
78162
78157
78170
78181
78199
78201
78167
78108
78031
77972
77948
77941
77945
77959
77970
77988
78025
78037
78060
78063
78067
78061
78063
78077
78093
78099
78131
78112
78125
78126
78070
77976
77921
77898
77884
77887
77905
77908
77941
77949
77968
77999
78001
78007
78024
78013
78022
78035
78031
78039
78046
78041
78046
78026
77936
77856
77794
77770
77760
77760
77746
77752
77796
77798
77829
77805
77801
77809
77792
77792
77800
77811
77787
77802
77811
77807
77802
77793
77730
77632
77589
77572
77576
77610
77669
77696
77725
77756
77771
77799
77813
77805
77830
77832
77833
77852
77858
77867
77870
77894
77917
77941
77896
77829
77774
77746
77767
77769
77795
77817
77854
77906
77920
77940
77928
77951
77956
77972
77985
77996
78019
78016
78035
78044
78045
78024
77980
77919
77866
77863
77852
77858
77883
77887
77930
77940
77969
77982
77984
77990
78013
78007
78003
78022
78034
78029
78044
78078
78111
78109
78089
78061
78081
78073
78108
78123
78132
78163
78195
78209
78219
78242
78263
78245
78260
78271
78289
78288
78293
78316
78321
78300
78261
78169
78133
78073
78075
78082
78087
78096
78109
78148
78149
78162
78166
78174
78173
78185
78203
78201
78205
78217
78195
78221
78221
78213
78148
78042
78019
77986
77999
77998
78016
78026
78040
78042
78046
78060
78074
78084
78062
78044
78039
78051
78031
78028
78019
78020
78037
78038
77994
77904
77843
77815
77787
77785
77773
77815
77814
77826
77844
77865
77836
77846
77854
77854
77848
77864
77854
77847
77853
77875
77867
77880
77844
77798
77700
77626
77619
77607
77612
77607
77617
77647
77655
77679
77700
77711
77691
77690
77704
77709
77707
77723
77729
77723
77743
77746
77741
77742
77659
77603
77522
77527
77515
77529
77566
77596
77588
77621
77650
77649
77663
77658
77653
77678
77656
77700
77691
77722
77724
77747
77741
77742
77702
77620
77565
77528
77507
77527
77538
77571
77624
77632
77654
77660
77676
77696
77700
77698
77724
77759
77745
77758
77781
77768
77761
77766
77728
77641
77576
77543
77533
77554
77562
77578
77603
77620
77625
77637
77636
77635
77642
77650
77661
77664
77675
77677
77674
77681
77686
77657
77593
77538
77468
77453
77453
77481
77506
77521
77531
77560
77580
77582
77582
77582
77606
77610
77627
77631
77637
77648
77645
77656
77662
77586
77522
77440
77431
77415
77441
77442
77480
77505
77530
77554
77541
77563
77574
77566
77575
77591
77617
77613
77611
77641
77655
77631
77614
77567
77471
77417
77410
77411
77440
77422
77434
77480
77495
77526
77526
77551
77542
77544
77546
77569
77568
77593
77579
77622
77613
77611
77599
77577
77487
77428
77385
77364
77385
77387
77399
77400
77445
77463
77460
77474
77496
77490
77477
77512
77504
77515
77508
77528
77554
77538
77556
77560
77537
77486
77387
77352
77301
77337
77313
77327
77347
77368
77406
77446
77447
77459
77442
77453
77461
77453
77480
77485
77492
77493
77500
77512
77510
77524
77485
77395
77320
77303
77280
77293
77314
77318
77330
77370
77388
77402
77432
77415
77427
77439
77452
77438
77440
77450
77464
77467
77488
77498
77493
77457
77397
77308
77244
77253
77239
77236
77284
77303
77314
77332
77359
77375
77366
77362
77374
77385
77404
77404
77416
77424
77456
77457
77461
77455
77414
77319
77224
77196
77179
77189
77209
77214
77235
77268
77295
77313
77303
77304
77330
77328
77357
77348
77351
77366
77390
77369
77392
77404
77356
77263
77180
77121
77123
77129
77118
77142
77156
77191
77209
77233
77232
77244
77242
77236
77251
77254
77256
77273
77264
77282
77272
77284
77244
77183
77078
77039
77038
77028
77036
77065
77078
77096
77132
77127
77150
77142
77160
77149
77158
77142
77166
77173
77164
77178
77168
77179
77174
77094
77004
76944
76917
76915
76930
76909
76943
76960
76985
76993
76999
77025
77026
77028
77051
77047
77030
77059
77061
77059
77064
77094
77069
77056
76987
76906
76827
76811
76795
76795
76793
76805
76831
76858
76881
76901
76916
76916
76910
76923
76941
76945
76962
76927
76959
76961
76980
76990
76996
76977
76911
76812
76786
76762
76747
76781
76780
76804
76840
76832
76885
76906
76920
76926
76915
76929
76937
76959
76943
76976
76979
76995
77005
77013
77041
76993
76912
76823
76769
76759
76756
76787
76800
76821
76862
76862
76922
76920
76933
76923
76932
76933
76928
76933
76964
76951
76960
76992
76990
76989
76952
76867
76797
76728
76726
76717
76758
76754
76781
76819
76842
76864
76875
76886
76893
76904
76891
76925
76941
76930
76946
76957
76957
76970
76951
76886
76812
76724
76711
76704
76693
76710
76736
76766
76788
76818
76830
76821
76842
76846
76860
76870
76883
76885
76892
76891
76898
76919
76914
76848
76731
76668
76648
76637
76642
76658
76681
76715
76735
76768
76774
76782
76784
76804
76828
76837
76831
76835
76842
76867
76865
76879
76870
76844
76756
76680
76643
76625
76655
76653
76676
76692
76722
76754
76772
76799
76819
76822
76809
76818
76828
76857
76865
76860
76860
76876
76900
76875
76843
76736
76674
76643
76639
76658
76663
76679
76716
76739
76752
76788
76797
76809
76815
76797
76809
76816
76817
76850
76840
76849
76869
76871
76875
76831
76738
76671
76616
76609
76623
76654
76680
76676
76711
76732
76767
76770
76777
76784
76802
76805
76806
76818
76819
76841
76835
76859
76846
76857
76872
76816
76725
76646
76600
76562
76574
76593
76576
76603
76636
76677
76667
76700
76672
76690
76675
76692
76693
76675
76679
76695
76704
76680
76695
76709
76692
76707
76593
76527
76479
76453
76451
76452
76464
76504
76502
76537
76572
76587
76600
76613
76591
76618
76624
76612
76628
76624
76650
76630
76643
76638
76653
76617
76541
76477
76422
76397
76425
76442
76464
76488
76509
76558
76585
76589
76597
76609
76641
76638
76656
76672
76688
76697
76696
76713
76753
76783
76755
76680
76614
76550
76541
76497
76660
76988
76850
77090
77341
77738
77551
77416
77194
77079
77090
77271
77367
77510
77682
77681
76908
76921
74863
72794
72736
73054
72687
72807
73094
73346
73504
73439
73217
72838
72293
71910
73695
74439
75505
76702
77467
78164
78287
77105
76378
77394
77929
78223
78458
78458
78469
78399
78887
74018
73587
73915
73985
74231
74508
74734
74987
75184
75367
75511
75659
75784
76014
76105
76279
76489
76653
76748
76694
76682
76866
76963
76865
76772
76754
76697
76701
76667
76658
76747
76831
76870
76869
76911
76912
76941
76972
76978
77002
77033
77057
77006
76927
76851
76768
76734
76761
76784
76806
76835
76851
76891
76928
76933
76942
76967
76971
76991
76983
76984
76973
76976
76982
77008
76945
76897
76751
76651
76650
76685
76707
76781
76816
76908
76960
77002
77085
77156
77210
77296
77354
77402
77453
77496
77520
77561
77628
77664
77675
77685
77654
77614
77615
77643
77671
77718
77780
77827
77892
77932
78006
78055
78087
78109
78122
78141
78173
78164
78197
78209
78226
78268
78281
78269
78209
78150
78123
78111
78140
78147
78188
78209
78228
78281
78317
78348
78354
78370
78363
78391
78400
78419
78435
78402
78419
78468
78464
78458
78397
78356
78294
78279
78294
78299
78321
78350
78372
78390
78438
78434
78456
78463
78472
78476
78492
78505
78501
78523
78518
78535
78562
78520
78465
78433
78389
78373
78372
78396
78406
78432
78465
78474
78505
78507
78508
78536
78534
78539
78540
78521
78551
78583
78563
78563
78576
78542
78493
78427
78397
78408
78383
78399
78418
78425
78436
78471
78497
78500
78538
78517
78522
78509
78536
78547
78550
78541
78551
78558
78555
78545
78494
78415
78370
78360
78336
78347
78333
78358
78372
78402
78409
78425
78442
78442
78448
78455
78480
78485
78458
78495
78513
78512
78524
78539
78522
78503
78437
78386
78333
78320
78327
78338
78359
78399
78433
78443
78473
78489
78491
78500
78480
78491
78490
78481
78480
78461
78473
78485
78502
78491
78503
78488
78434
78370
78309
78300
78278
78288
78287
78308
78320
78357
78390
78383
78407
78408
78411
78427
78443
78436
78453
78456
78455
78476
78497
78466
78482
78482
78425
78346
78299
78265
78260
78287
78301
78316
78341
78366
78370
78388
78380
78398
78404
78416
78414
78422
78420
78438
78444
78427
78443
78443
78454
78401
78336
78281
78241
78229
78239
78264
78271
78292
78291
78337
78360
78381
78368
78396
78396
78417
78425
78411
78457
78445
78460
78482
78486
78467
78429
78374
78307
78294
78295
78298
78303
78337
78344
78379
78393
78407
78428
78451
78431
78460
78469
78479
78489
78480
78479
78481
78505
78512
78489
78436
78385
78338
78312
78309
78315
78336
78354
78377
78399
78430
78425
78441
78466
78454
78455
78486
78475
78485
78519
78487
78527
78506
78519
78508
78459
78390
78338
78321
78324
78355
78329
78344
78396
78399
78425
78427
78454
78453
78460
78462
78449
78473
78489
78475
78489
78505
78496
78515
78536
78484
78419
78389
78332
78314
78311
78323
78337
78355
78374
78386
78414
78432
78432
78454
78444
78451
78436
78428
78469
78471
78463
78474
78470
78477
78497
78479
78411
78351
78308
78275
78291
78294
78304
78306
78328
78362
78380
78388
78407
78406
78401
78409
78420
78415
78420
78405
78437
78450
78442
78468
78466
78436
78370
78302
78262
78256
78252
78263
78300
78298
78332
78341
78378
78401
78387
78410
78433
78425
78422
78443
78442
78451
78472
78488
78498
78485
78491
78409
78341
78302
78285
78272
78313
78310
78336
78351
78392
78410
78429
78426
78415
78428
78438
78429
78447
78457
78441
78450
78459
78452
78463
78441
78374
78311
78259
78263
78256
78258
78294
78309
78327
78339
78376
78403
78397
78398
78399
78411
78419
78430
78431
78448
78464
78495
78493
78525
78472
78398
78364
78329
78348
78359
78379
78398
78429
78461
78471
78491
78518
78511
78515
78531
78525
78526
78554
78551
78581
78574
78583
78605
78601
78537
78487
78444
78407
78402
78422
78421
78455
78456
78487
78533
78516
78549
78547
78568
78553
78560
78571
78577
78576
78599
78592
78599
78613
78636
78597
78513
78465
78414
78404
78425
78401
78425
78439
78488
78502
78527
78529
78523
78544
78543
78543
78555
78556
78558
78566
78576
78564
78579
78576
78593
78516
78466
78388
78384
78370
78386
78392
78423
78446
78460
78482
78512
78528
78551
78537
78539
78566
78589
78577
78581
78564
78574
78570
78554
78563
78561
78514
78440
78382
78320
78317
78307
78330
78349
78366
78361
78409
78408
78405
78402
78400
78418
78404
78424
78412
78420
78412
78418
78424
78422
78428
78429
78401
78307
78268
78218
78198
78210
78195
78221
78249
78254
78265
78295
78307
78306
78317
78305
78323
78302
78289
78304
78332
78308
78313
78341
78334
78307
78239
78177
78150
78091
78134
78109
78134
78162
78180
78192
78205
78231
78237
78239
78247
78236
78240
78231
78257
78269
78255
78278
78288
78268
78242
78161
78103
78071
78075
78051
78079
78077
78083
78118
78137
78175
78187
78179
78207
78195
78201
78214
78236
78241
78244
78252
78254
78281
78252
78168
78110
78074
78047
78086
78076
78070
78113
78130
78185
78198
78208
78229
78231
78230
78228
78264
78262
78273
78277
78273
78292
78293
78287
78245
78165
78133
78111
78093
78111
78123
78153
78161
78188
78205
78252
78258
78251
78266
78256
78269
78261
78279
78288
78271
78297
78283
78297
78284
78234
78189
78125
78104
78102
78113
78114
78132
78159
78157
78195
78199
78216
78208
78228
78229
78229
78210
78241
78253
78253
78260
78278
78281
78301
78258
78170
78112
78069
78082
78065
78053
78045
78067
78075
78082
78111
78119
78096
78101
78101
78099
78123
78102
78098
78124
78122
78116
78115
78127
78117
78076
78002
77938
77900
77889
77878
77903
77936
77942
77952
77982
77977
77982
78000
78012
77999
77998
78024
78024
78004
78018
78013
78027
78042
78025
78015
77975
77913
77828
77804
77794
77797
77809
77827
77836
77873
77877
77909
77890
77929
77933
77913
77923
77930
77933
77928
77973
77958
77965
77966
77936
77900
77843
77758
77737
77731
77744
77761
77768
77790
77836
77823
77861
77879
77876
77874
77875
77882
77885
77907
77904
77909
77917
77945
77951
77924
77867
77798
77728
77713
77704
77715
77705
77766
77760
77802
77830
77840
77856
77855
77873
77872
77890
77894
77912
77901
77915
77917
77923
77937
77915
77888
77810
77746
77710
77711
77737
77718
77747
77764
77794
77829
77853
77853
77851
77882
77859
77894
77891
77892
77915
77906
77935
77938
77972
77976
77963
77909
77841
77770
77752
77750
77741
77763
77774
77799
77824
77861
77869
77891
77904
77910
77913
77935
77939
77945
77945
77952
77966
77969
77988
77979
77971
77969
77918
77836
77767
77734
77741
77749
77744
77777
77795
77828
77864
77873
77892
77897
77914
77922
77923
77933
77941
77947
77929
77972
77983
77999
77991
78009
78014
77959
77895
77828
77802
77803
77827
77840
77860
77878
77914
77924
77937
77965
77977
77984
77968
77989
77975
77997
77992
78007
78013
78032
78049
78078
78055
78015
77933
77879
77844
77828
77817
77831
77887
77882
77911
77950
77964
77984
77991
78012
77994
78010
78006
78025
78008
78043
78055
78047
78073
78071
78057
78003
77931
77873
77848
77843
77827
77852
77888
77901
77930
77967
77961
77987
78013
78003
77997
78010
78012
78018
78031
78032
78036
78057
78065
78054
78015
77951
77878
77846
77810
77828
77833
77859
77873
77914
77926
77966
77975
77976
77991
77982
77976
77999
78006
78022
78019
78016
78001
78022
78011
78018
77950
77879
77827
77796
77790
77813
77824
77839
77874
77877
77905
77942
77959
77958
77969
77953
77953
77980
77979
77977
77989
77976
77990
78031
78018
77997
77934
77856
77827
77820
77810
77789
77820
77823
77836
77869
77892
77943
77945
77957
77974
77969
77977
77989
77980
77987
78015
78036
78026
78023
78050
78038
77990
77904
77847
77823
77809
77805
77817
77840
77843
77869
77897
77923
77943
77952
77963
77942
77974
77980
77964
77985
77990
78013
77992
78027
78036
78031
78008
77936
77867
77813
77835
77824
77831
77878
77871
77898
77915
77952
77966
77982
77999
77986
77978
77984
78014
78015
78026
78046
78022
78053
78059
78052
78040
77986
77904
77862
77835
77832
77864
77866
77876
77908
77961
77959
77980
77988
78003
77988
78007
78012
78030
78023
78031
78057
78052
78069
78061
78071
78008
77939
77861
77832
77822
77816
77847
77868
77883
77890
77924
77928
77951
77960
77961
77981
77983
77986
77987
77992
77998
78010
78015
78041
78033
77982
77927
77844
77796
77803
77803
77815
77831
77863
77877
77898
77913
77959
77968
77968
77961
77974
77998
77985
77990
78005
77999
78025
78035
78025
77983
77923
77831
77804
77810
77799
77818
77821
77833
77866
77902
77940
77957
77943
77970
77951
77983
77980
77998
77997
77999
78010
78005
78013
78015
77998
77924
77836
77789
77770
77774
77777
77808
77809
77849
77882
77908
77920
77947
77944
77959
77942
77945
77953
77949
77966
77963
77989
77992
77984
78001
77968
77879
77830
77779
77778
77778
77822
77824
77853
77866
77871
77878
77908
77933
77943
77934
77928
77929
77943
77941
77954
77964
77981
77997
77998
77997
77951
77871
77826
77788
77786
77799
77804
77829
77858
77860
77876
77909
77928
77934
77945
77923
77935
77948
77942
77939
77943
77970
77957
77954
77986
77965
77929
77818
77786
77753
77754
77756
77780
77796
77811
77862
77856
77901
77896
77897
77909
77883
77881
77928
77894
77896
77938
77930
77942
77960
77927
77870
77814
77757
77742
77727
77750
77759
77777
77808
77830
77864
77880
77899
77902
77912
77913
77920
77930
77928
77949
77943
77961
77970
77965
77927
77851
77781
77743
77719
77724
77753
77746
77761
77783
77807
77839
77868
77873
77857
77893
77885
77900
77880
77882
77905
77899
77909
77924
77936
77892
77810
77741
77723
77711
77696
77710
77730
77727
77753
77790
77786
77812
77816
77825
77856
77843
77845
77849
77844
77887
77890
77868
77868
77895
77868
77836
77767
77679
77653
77623
77659
77636
77668
77663
77729
77714
77747
77750
77758
77775
77777
77764
77776
77798
77806
77810
77801
77811
77803
77847
77839
77797
77710
77646
77611
77601
77610
77615
77647
77673
77699
77713
77753
77766
77769
77770
77775
77804
77773
77793
77806
77804
77819
77813
77817
77830
77806
77783
77703
77639
77582
77578
77601
77610
77638
77625
77689
77697
77738
77735
77737
77749
77770
77766
77776
77775
77781
77791
77798
77816
77817
77809
77802
77707
77646
77597
77589
77569
77585
77592
77628
77648
77661
77685
77717
77715
77735
77726
77721
77726
77736
77751
77757
77777
77760
77785
77801
77775
77725
77650
77575
77577
77548
77547
77574
77584
77605
77630
77657
77685
77673
77707
77689
77708
77717
77716
77731
77725
77751
77738
77750
77757
77786
77777
77725
77645
77590
77547
77535
77542
77554
77560
77574
77599
77626
77669
77675
77689
77721
77713
77711
77718
77725
77743
77730
77755
77752
77748
77786
77815
77749
77731
77675
77627
77550
77580
77572
77563
77588
77603
77626
77647
77663
77689
77688
77689
77685
77701
77703
77714
77725
77722
77738
77731
77749
77775
77764
77760
77711
77663
77601
77554
77549
77555
77560
77600
77617
77622
77668
77690
77693
77698
77693
77703
77724
77730
77728
77729
77741
77749
77761
77761
77788
77769
77740
77684
77600
77566
77553
77563
77561
77575
77591
77628
77647
77665
77707
77715
77717
77711
77715
77728
77745
77751
77747
77749
77761
77773
77779
77793
77751
77696
77626
77561
77541
77578
77568
77587
77590
77622
77641
77670
77681
77715
77706
77714
77714
77710
77734
77739
77737
77746
77750
77804
77786
77787
77737
77667
77589
77554
77543
77557
77565
77578
77598
77612
77641
77671
77710
77682
77719
77711
77723
77719
77720
77738
77743
77755
77772
77789
77785
77799
77777
77701
77635
77579
77561
77545
77542
77578
77577
77602
77610
77653
77684
77693
77703
77711
77734
77718
77739
77742
77737
77747
77756
77759
77751
77772
77797
77760
77735
77644
77582
77567
77547
77583
77587
77605
77638
77654
77706
77681
77704
77711
77736
77737
77737
77737
77726
77764
77775
77759
77773
77789
77794
77804
77798
77740
77682
77637
77616
77614
77605
77647
77662
77682
77699
77722
77743
77767
77757
77775
77779
77789
77795
77796
77785
77818
77821
77820
77853
77861
77831
77817
77741
77673
77638
77633
77637
77649
77665
77677
77700
77732
77748
77768
77781
77792
77797
77812
77791
77797
77814
77814
77815
77824
77841
77849
77838
77782
77714
77669
77625
77619
77616
77632
77653
77653
77690
77692
77719
77744
77754
77769
77770
77770
77771
77775
77781
77776
77801
77800
77803
77808
77772
77706
77642
77574
77528
77536
77582
77589
77603
77607
77647
77636
77666
77678
77660
77676
77669
77691
77682
77684
77691
77717
77715
77725
77742
77715
77654
77592
77542
77526
77501
77526
77513
77545
77557
77578
77593
77611
77622
77644
77640
77639
77643
77656
77655
77650
77659
77649
77662
77683
77669
77622
77537
77465
77432
77415
77438
77435
77449
77484
77496
77541
77540
77577
77589
77583
77593
77601
77611
77613
77615
77620
77653
77624
77664
77646
77601
77532
77473
77425
77409
77404
77405
77416
77452
77490
77497
77518
77551
77559
77566
77578
77559
77572
77595
77583
77612
77604
77626
77629
77640
77645
77621
77531
77465
77415
77405
77426
77419
77450
77448
77505
77528
77556
77564
77586
77616
77580
77601
77600
77611
77608
77630
77634
77644
77648
77660
77651
77608
77531
77483
77443
77435
77443
77457
77493
77503
77524
77550
77556
77583
77600
77610
77607
77606
77606
77642
77613
77630
77648
77638
77661
77649
77618
77546
77470
77450
77439
77434
77466
77476
77506
77523
77531
77553
77578
77594
77601
77609
77597
77612
77593
77611
77634
77638
77638
77636
77621
77570
77509
77437
77417
77397
77417
77425
77448
77477
77500
77519
77539
77556
77565
77575
77567
77586
77579
77592
77617
77614
77601
77624
77630
77638
77574
77501
77439
77420
77431
77409
77410
77438
77470
77489
77516
77519
77561
77550
77575
77562
77600
77610
77612
77614
77626
77621
77629
77637
77666
77614
77541
77465
77414
77400
77403
77414
77429
77461
77471
77514
77528
77548
77545
77562
77588
77567
77573
77580
77591
77610
77610
77607
77623
77634
77642
77622
77542
77464
77418
77410
77415
77416
77430
77458
77491
77506
77528
77534
77557
77592
77580
77583
77601
77574
77609
77615
77621
77617
77628
77631
77644
77648
77626
77550
77489
77444
77413
77432
77431
77425
77461
77457
77502
77526
77570
77571
77597
77597
77609
77601
77606
77625
77638
77636
77656
77649
77653
77663
77658
77629
77548
77485
77475
77449
77474
77463
77491
77530
77539
77576
77601
77595
77611
77622
77622
77628
77632
77624
77660
77657
77663
77679
77672
77705
77688
77630
77561
77519
77464
77466
77474
77493
77510
77535
77563
77593
77611
77640
77644
77659
77658
77676
77685
77700
77695
77702
77706
77698
77710
77721
77690
77641
77535
77512
77486
77490
77507
77518
77541
77596
77596
77642
77670
77665
77672
77690
77697
77684
77686
77715
77726
77729
77721
77755
77749
77709
77663
77572
77539
77514
77509
77512
77540
77588
77567
77594
77609
77652
77663
77701
77689
77691
77698
77704
77703
77712
77728
77719
77742
77728
77732
77679
77615
77558
77520
77511
77525
77539
77543
77566
77574
77618
77643
77666
77688
77680
77703
77702
77700
77709
77713
77716
77713
77737
77739
77745
77724
77684
77604
77557
77519
77504
77501
77519
77566
77570
77591
77618
77640
77667
77664
77670
77684
77680
77677
77708
77675
77707
77690
77702
77729
77732
77699
77648
77586
77501
77443
77451
77454
77471
77496
77506
77514
77544
77567
77579
77596
77620
77612
77607
77623
77612
77615
77644
77633
77661
77663
77637
77659
77628
77554
77488
77449
77449
77458
77464
77496
77503
77508
77545
77588
77583
77578
77599
77581
77580
77603
77593
77609
77597
77598
77598
77649
77622
77627
77555
77484
77442
77403
77397
77406
77431
77447
77477
77490
77517
77556
77566
77573
77602
77620
77609
77610
77607
77654
77633
77654
77666
77682
77657
77642
77546
77495
77471
77435
77448
77465
77489
77494
77536
77576
77587
77610
77635
77635
77636
77639
77641
77648
77652
77674
77651
77679
77685
77680
77626
77549
77492
77447
77435
77426
77444
77464
77488
77507
77526
77566
77578
77611
77606
77614
77629
77616
77629
77645
77631
77644
77638
77665
77670
77633
77591
77497
77465
77416
77428
77439
77449
77467
77475
77522
77514
77567
77573
77597
77608
77611
77627
77647
77643
77645
77672
77654
77663
77655
77686
77677
77620
77541
77454
77430
77430
77409
77406
77421
77419
77468
77492
77482
77525
77528
77500
77521
77547
77542
77555
77581
77599
77606
77617
77641
77645
77651
77657
77623
77554
77490
77435
77431
77423
77465
77484
77505
77549
77581
77648
77689
77706
77729
77760
77763
77781
77769
77789
77805
77802
77866
77904
77956
77961
77911
77746
77676
77631
77653
77734
77800
77836
77829
77870
77910
77927
77942
77926
77921
77926
77873
77812
77758
77710
77665
77593
77496
77393
77360
77362
77294
77175
77043
76944
76836
76760
76730
76690
76685
76694
76675
76614
76536
76568
76622
76599
76573
76486
76313
76009
75651
75288
74845
74489
74203
73872
73503
73119
72837
72732
72680
72634
72614
72587
72582
72671
72710
72720
72764
72778
72783
72809
72821
72823
72863
72885
72928
72970
72990
73031
73076
73026
72959
72931
72921
72964
72978
73014
73049
73121
73129
73221
73251
73230
73236
73244
73244
73248
73220
73201
73179
73191
73174
73192
73190
73165
73089
73036
73024
73048
73062
73138
73178
73226
73296
73360
73384
73444
73490
73515
73543
73590
73619
73631
73670
73691
73741
73775
73786
73794
73732
73690
73641
73632
73636
73641
73668
73687
73734
73765
73784
73821
73828
73878
73893
73907
73943
73937
73980
73996
74026
74045
74066
74034
73943
73869
73812
73806
73817
73815
73849
73868
73885
73917
73961
73995
74026
74044
74017
74034
74028
74050
74042
74099
74118
74165
74180
74134
74050
74015
74001
74027
74051
74101
74154
74231
74289
74348
74371
74392
74448
74465
74491
74514
74520
74545
74562
74547
74576
74586
74551
74430
74299
74172
74103
74048
74016
73993
73984
74004
74022
74029
74050
74068
74051
74073
74045
74034
74038
74046
74087
74108
74063
73979
73851
73738
73662
73653
73655
73673
73700
73736
73772
73829
73854
73914
73915
73930
73944
73983
73976
73980
73993
74006
74030
73988
73879
73783
73730
73728
73738
73755
73777
73826
73833
73870
73897
73917
73907
73918
73909
73907
73906
73890
73897
73907
73913
73889
73825
73710
73586
73542
73545
73600
73606
73665
73723
73802
73873
73959
74005
74029
74077
74126
74191
74249
74321
74388
74456
74504
74597
74614
74584
74518
74454
74439
74444
74477
74526
74567
74643
74718
74798
74882
74951
75027
75082
75130
75196
75238
75280
75338
75362
75410
75437
75440
75340
75260
75194
75177
75207
75236
75279
75345
75404
75473
75552
75654
75727
75808
75884
75957
76023
76046
76097
76133
76187
76223
76255
76258
76205
76158
76113
76094
76098
76124
76145
76189
76262
76305
76343
76362
76356
76342
76317
76273
76270
76256
76220
76147
76062
75958
75809
75596
75357
75188
75042
74970
74938
74864
74855
74856
74857
74886
74908
74960
74982
75029
75051
75097
75104
75122
75131
75135
75081
74961
74876
74808
74766
74747
74779
74807
74853
74898
74920
74971
75006
75016
75046
75071
75116
75117
75146
75184
75281
75383
75442
75439
75390
75325
75273
75265
75258
75282
75304
75314
75338
75346
75376
75395
75409
75408
75370
75328
75296
75255
75239
75232
75205
75129
75026
74883
74735
74623
74479
74418
74344
74305
74272
74270
74285
74307
74350
74402
74434
74475
74528
74558
74608
74628
74713
74735
74745
74696
74627
74572
74555
74536
74561
74575
74621
74674
74698
74757
74816
74839
74895
74917
74962
74998
75018
75048
75080
75074
75036
74963
74899
74886
74909
74891
74912
74976
74990
75047
75093
75163
75190
75239
75290
75295
75291
75236
75235
75251
75268
75285
75283
75231
75152
75066
74945
74751
74517
74270
74075
73927
73814
73755
73700
73625
73505
73446
73387
73344
73321
73321
66194
73389
73387
73352
73367
73361
73456
73562
73621
73694
73793
73853
73954
74006
74072
74175
74350
74492
74561
74615
74605
74608
74490
74254
74022
73884
73792
73741
73745
73749
73800
73960
74122
74273
74486
74668
74875
75117
75444
75796
76071
76393
76606
76767
76856
76899
76971
77116
77205
77336
77387
77445
77546
77632
77730
77742
77772
77764
77741
77740
77805
77917
78053
78201
78348
78460
78501
78498
78463
78481
78501
78537
78585
78641
78684
78739
78746
78794
78833
78849
78895
78901
78938
78969
79015
79028
79045
79031
79041
79062
79107
79134
79161
79215
79240
79250
79235
79241
79209
79189
79177
79173
79200
79191
79197
79182
79163
79084
79024
79012
78994
78968
78997
78990
79025
79035
79047
79038
79012
79010
78996
78978
78976
78993
78967
79004
79005
78961
78909
78872
78880
78885
78899
78902
78924
78931
78957
78956
78978
78970
78960
78937
78913
78869
78874
78861
78842
78783
78746
78658
78633
78628
78638
78612
78619
78629
78643
78670
78665
78683
78638
78633
78617
78581
78588
78580
78574
78555
78499
78457
78405
78388
78346
78349
78344
78321
78320
78362
78368
78377
78392
78370
78382
78375
78377
78397
78417
78395
78369
78348
78321
78347
78383
78407
78448
78485
78519
78535
78532
78520
78504
78480
78488
78493
78516
78504
78491
78451
78378
78331
78303
78313
78322
78333
78294
78307
78320
78326
78334
78319
78307
78298
78274
78294
78299
78288
78238
78199
78156
78111
78125
78131
78162
78159
78208
78216
78240
78250
78260
78263
78242
78248
78251
78251
78255
78220
78146
78090
78032
78024
78017
78035
78049
78068
78094
78115
78121
78136
78120
78091
78095
78100
78098
78098
78099
78076
77983
77932
77892
77870
77882
77890
77934
77934
77992
77984
77991
78003
78006
77976
77952
77944
77986
77975
77952
77868
77798
77739
77723
77702
77730
77761
77789
77839
77839
77876
77891
77857
77849
77860
77824
77851
77880
77854
77829
77749
77690
77651
77672
77694
77702
77746
77795
77807
77831
77818
77836
77807
77836
77802
77804
77819
77818
77788
77711
77622
77591
77593
77586
77595
77612
77647
77675
77688
77693
77713
77716
77691
77676
77690
77665
77688
77700
77645
77565
77487
77452
77473
77481
77505
77538
77580
77600
77644
77651
77635
77671
77644
77647
77647
77655
77658
77687
77646
77581
77470
77421
77394
77399
77442
77443
77463
77497
77516
77524
77526
77512
77491
77468
77509
77571
77640
77672
77714
77725
77711
77661
77650
77663
77695
77715
77775
77858
77921
77959
77989
77974
77936
77924
77907
77909
77885
77886
77866
77838
77812
77852
77801
77760
77690
77686
77693
77737
77761
77780
77816
77819
77861
77940
77970
77980
77996
78003
78005
78014
78023
78005
78003
78000
77944
77845
77764
77741
77754
77750
77781
77809
77845
77894
77956
77998
78015
77937
77830
77726
77620
77536
77513
77492
77463
77492
77458
77514
77439
77921
78805
78884
78917
79011
77878
77705
77899
78009
78027
78011
77789
77667
77541
77459
77362
77258
77112
76844
76405
75930
75555
75325
75064
74776
74512
74214
73964
73717
73591
73704
73768
73778
73768
73771
73799
73828
73837
73870
73926
73986
74096
74152
74184
74153
74172
74324
74441
74626
74848
75075
75318
75546
75756
75910
75976
76048
76054
76036
76045
76037
76073
76085
76109
76155
76184
76205
76140
76089
76036
76040
76121
76180
76281
76353
76429
76500
76530
76535
76503
76488
76489
76520
76542
76555
76564
76580
76590
76632
76646
76618
76568
76481
76422
76430
76434
76462
76502
76535
76570
76575
76601
76589
76605
76620
76623
76657
76665
76678
76705
76700
76740
76767
76756
76669
76602
76574
76582
76590
76617
76659
76709
76763
76773
76825
76831
76858
76853
76892
76909
76949
76981
77003
77039
77073
77085
77086
77007
76917
76857
76886
76914
76969
77035
77089
77134
77180
77205
77233
77253
77290
77271
77277
77319
77332
77356
77385
77378
77423
77445
77395
77297
77243
77271
77313
77343
77386
77454
77515
77563
77608
77640
77666
77658
77673
77691
77702
77735
77751
77763
77768
77808
77829
77756
77667
77604
77547
77568
77596
77636
77624
77631
77608
77521
77435
77316
77161
76990
76832
76589
76379
76215
76096
76071
76064
76014
75904
75734
75603
75539
75513
75506
75505
75481
75488
75510
75554
75566
75594
75578
75529
75489
75483
75528
75589
75600
75645
75682
75714
75725
75642
75547
75489
75477
75525
75672
75822
75986
76097
76185
76240
76273
76270
76319
76522
76699
76898
77092
77273
77469
77684
77790
77787
77761
77696
77642
77641
77700
77789
77877
77924
78009
78062
78175
78254
78369
78450
78500
78522
78603
78673
78727
78762
78810
78853
78829
78740
78669
78646
78618
78665
78714
78741
78778
78809
78848
78851
78869
78846
78836
78838
78841
78861
78878
78879
78891
78939
78956
78927
78852
78827
78828
78874
78934
78972
79044
79117
79164
79212
79260
79308
79363
79414
39690
79375
79430
79437
79456
79496
79552
79615
79661
79650
79632
79606
79599
79632
79647
79693
79717
79752
79809
79858
79879
79915
79910
79913
79928
79955
79981
80051
80081
80150
80185
80197
80161
80174
80150
80151
80164
80166
80177
80201
80260
80290
80283
80303
80307
80286
80288
80299
80297
80290
80327
80295
80292
80301
80268
80229
80176
80173
80149
80173
80159
80137
80147
80167
80193
80229
80234
80231
80225
80225
80268
80243
80216
80190
80225
80240
80179
80129
80065
79995
79983
79986
79970
79984
79958
79936
79917
79904
79911
79868
79826
79776
79740
79722
79717
79723
79707
79687
79688
79653
79596
79515
79499
79506
79504
79511
79530
79559
79557
79574
79605
79636
79617
79619
79598
79620
79602
79634
79660
79661
79711
79703
79686
79640
79603
79605
79636
79659
79670
79729
79762
79815
79874
79937
79943
79980
80034
80089
80176
80245
80290
80351
80358
80396
80424
80396
80367
80336
80297
80333
80336
80364
80392
80411
80423
80460
80469
80474
80460
80422
80418
80400
80393
80383
80367
80385
80391
80392
80380
80330
80262
80269
80252
80253
80274
80277
80280
80308
80314
80335
80339
80330
80324
80342
80340
80351
80373
80340
80370
80398
80415
80377
80338
80265
80190
80187
80217
80258
80307
80300
80312
80328
80373
80387
80399
80375
80385
80365
80369
80363
80369
80364
80365
80359
80337
80297
80245
80228
80259
80261
80255
80273
80291
80317
80347
80351
80343
80328
80338
80325
80338
80338
80346
80357
80352
80357
80366
80319
80248
80231
80223
80220
80215
80233
80247
80263
80278
80316
80310
80330
80316
80310
80326
80323
80340
80341
80338
80336
80350
80300
80254
80200
80183
80182
80179
80165
80170
80209
80188
80195
80230
80218
80210
80219
80164
80134
80142
80154
80141
80152
80134
80141
80105
80065
80032
80016
80016
80038
80039
80060
80073
80099
80093
80092
80108
80094
80105
80082
80086
80090
80096
80079
80102
80096
80106
80040
79966
79966
79937
79937
79946
79937
79932
79934
79937
79946
79948
79933
79917
79911
79909
79926
79912
79912
79902
79916
79923
79929
79890
79863
79812
79787
79773
79778
79797
79792
79816
79819
79813
79827
79832
79803
79771
79791
79770
79800
79798
79797
79803
79807
79806
79791
79777
79708
79676
79681
79690
79700
79733
79730
79745
79774
79782
79764
79750
79759
79727
79727
79706
79723
79729
79732
79729
79735
79741
79686
79637
79595
79604
79581
79597
79612
79645
79641
79664
79666
79650
79654
79653
79633
79626
79627
79655
79629
79635
79657
79661
79632
79566
79527
79525
79483
79517
79540
79529
79564
79580
79578
79592
79606
79590
79600
79586
79616
79612
79629
79618
79648
79650
79658
79628
79559
79508
79501
79511
79508
79514
79524
79567
79575
79589
79613
79593
79605
79598
79614
79614
79605
79610
79628
79626
79650
79637
79705
79734
79724
79640
79466
79423
79393
79420
79340
79308
79233
79301
79292
79282
79176
79122
79038
79021
79028
78977
78969
78954
78973
78958
78940
78853
78786
78694
78682
78701
78721
78760
78786
78813
78819
78832
78834
78876
78877
78873
78870
78886
78890
78896
78898
78913
78942
78938
78893
78822
78749
78708
78720
78725
78741
78764
78814
78892
78963
79002
78937
78912
78849
78773
78773
78758
78732
78540
78422
78317
78180
78043
77829
77583
77359
77307
77316
77435
77697
77998
78694
79004
79603
80142
79674
79736
79849
78570
77764
74499
74772
72986
71209
72234
72181
73075
74704
73802
72067
72163
72605
74079
75578
74275
73982
73530
72958
72937
73256
73687
73923
73558
73216
73082
72985
73029
73107
73136
73074
73049
73055
72778
72744
72735
72936
73331
73693
73927
73586
72892
72011
70783
69471
69257
69472
69740
69911
69963
70002
70035
70034
70005
69947
69885
69851
69876
69882
69934
69960
70017
70082
70153
70228
70286
70346
70368
70412
70424
70472
70498
70533
70570
70601
70648
70672
70654
70582
70558
70551
70567
70592
70590
70555
70530
70467
70430
70390
70382
70393
70406
70425
70432
70412
70322
70242
70167
70171
70160
70263
70486
70726
71124
71199
71785
73037
73988
74561
74921
74780
74269
73606
73171
73230
73379
73650
73354
73146
73280
73846
76398
76216
76381
77051
75466
74282
74698
75927
76292
74764
76344
75751
73722
74423
75997
73967
74145
77009
76894
76578
77499
77281
76981
76731
76725
76678
76394
76279
76098
76064
76072
76023
76172
76385
76500
76570
76637
76792
76895
77027
77102
77147
77222
77258
77242
77244
77268
77300
77217
77139
77064
77069
77076
77071
77154
77295
77358
77479
77583
77501
77469
77456
77410
77357
77306
77291
77351
77367
77337
77292
77260
77188
77140
77106
77107
77167
77225
77279
77391
77400
77379
77340
77313
77240
77096
77025
76934
77019
77133
77249
77386
77608
77732
77947
78024
77951
77909
77919
78045
78072
78079
77916
77574
77157
76911
76559
76251
75986
75826
75937
76363
76575
77075
77375
77304
77244
77492
77800
77943
78277
78501
78645
78614
78567
78488
78737
78925
24323
24460
24569
24565
24539
24508
24512
24480
24536
24568
78526
78458
78468
78503
78455
78398
78277
78091
77990
78572
78678
78436
78212
78076
77996
77948
77961
77995
78051
78115
78245
78271
78346
78361
78349
78324
78248
78209
78160
78067
77988
77979
78028
78015
78011
78006
78040
78064
78104
78109
78112
78110
78100
78112
78143
78168
78196
78271
78333
78345
78400
78414
78415
78394
78369
78360
78266
78161
78176
78148
78172
78181
78188
78203
78187
78181
78171
78139
78151
78155
78173
78244
78319
78387
78378
78430
78499
78754
78693
78681
78695
78664
78573
78429
78279
78159