77,-51,-50
3783,-30692,6
1535,-30720,6
703,-30656,8
454,-23040,9
7,0,4
8,3,4
12,2,8
13,3,8
13,4,7
16,6,9
15,5,8
15,3,10
19,4,9
17,4,10
20,1,8
22,0,6
21,-2,5
24,-7,7
27,-11,0
29,-15,-1
31,-17,-1
32,-21,0
27,-22,0
28,-21,0
28,-23,1
29,-26,7
26,-24,7
27,-21,7
26,-21,8
28,-18,12
24,-17,15
23,-16,11
23,-13,14
25,-9,14
25,-8,13
21,-9,19
18,-11,15
13,-15,15
15,-22,18
17,-26,19
18,-31,22
22,-27,22
27,-23,19
33,-15,19
37,-13,23
28,-11,23
25,-13,20
23,-15,21
22,-17,15
23,-18,12
21,-17,5
18,-18,6
16,-19,4
11,-22,2
5,-19,2
-2,-21,4
-9,-21,4
-13,-19,6
-19,-20,9
-22,-19,9
-24,-18,12
-25,-13,16
-25,-15,17
-21,-14,18
-19,-9,22
-15,-4,23
-17,-1,25
-20,1,25
-23,2,21
-24,6,20
-31,4,16
-31,6,10
-36,7,8
-34,6,9
-32,2,6
-30,5,2
-28,5,1
-24,4,2
-19,4,3
-14,2,0
-11,2,3
-10,-2,5
-12,1,6
-10,1,7
-12,-2,5
-11,-4,9
-12,-5,10
-18,-6,12
-17,-6,12
-20,-5,12
-21,-7,11
-25,-10,11
-29,-11,11
-30,-17,11
-36,-21,7
-40,-29,10
-42,-31,6
-44,-33,10
-44,-35,7
-43,-33,10
-41,-31,12
-39,-29,12
-36,-28,16
-39,-22,18
-40,-21,24
-43,-17,25
-43,-15,31
-46,-9,32
-48,-4,32
-47,-4,31
-47,0,33
-48,0,38
-58,2,39
-63,8,45
-74,17,48
-82,18,56
-87,21,57
-93,26,59
-99,34,65
-100,39,75
-105,42,76
-106,50,85
-114,57,89
-118,64,95
-126,68,104
-133,73,107
-135,73,115
-142,77,124
-139,82,132
-139,91,135
-133,96,143
-130,99,151
-127,100,158
-127,98,168
-126,93,178
-131,91,196
-139,92,213
-152,92,226
-157,92,242
-164,97,257
-174,104,269
-177,114,287
-186,124,304
-202,139,322
-215,149,339
-230,158,354
-250,168,373
-263,172,396
-274,175,417
-285,179,444
-296,181,469
-302,176,496
-305,164,521
-304,149,542
-298,132,563
-296,121,584
-292,113,599
-291,116,612
-293,131,624
-300,159,635
-309,208,648
-318,248,649
-331,270,655
-345,286,661
-364,295,666
-374,304,669
-379,318,662
-377,326,647
-359,333,630
-339,361,582
-331,360,558
-309,352,540
-289,336,529
-282,338,523
-288,345,520
-299,355,521
-317,369,524
-324,407,526
-349,439,528
-372,463,534
-394,483,537
-407,502,539
-415,515,537
-418,518,533
-418,525,530
-409,523,523
-399,510,518
-388,494,504
-383,471,495
-396,444,483
-416,408,472
-445,377,465
-478,354,459
-520,334,451
-563,316,441
-609,304,426
-650,295,410
-690,285,388
-721,279,368
-753,275,337
-765,268,308
-777,261,272
-777,251,234
-773,234,194
-763,212,153
-753,184,111
-742,153,63
-734,103,19
-717,50,-25
-699,-12,-79
-674,-97,-121
-652,-198,-171
-637,-308,-206
-646,-421,-230
-670,-532,-248
-703,-627,-261
-739,-708,-271
-768,-777,-277
-796,-841,-286
-819,-891,-294
-829,-939,-298
-829,-976,-306
-822,-1014,-308
-816,-1048,-300
-807,-1074,-290
-805,-1087,-278
-794,-1095,-263
-784,-1087,-249
-765,-1072,-232
-745,-1049,-217
-714,-1024,-198
-687,-996,-181
-663,-969,-156
-636,-940,-132
-611,-914,-108
-588,-894,-78
-575,-881,-52
-561,-873,-24
-553,-863,5
-543,-850,38
-534,-830,67
-525,-815,98
-514,-792,130
-501,-775,155
-486,-755,178
-466,-732,197
-448,-719,216
-428,-703,226
-400,-693,234
-361,-693,241
-323,-693,246
-288,-697,250
-261,-697,262
-241,-697,270
-225,-681,286
-216,-659,304
-210,-626,320
-209,-581,330
-206,-542,345
-201,-489,357
-197,-442,370
-191,-392,381
-182,-345,387
-179,-307,397
-169,-269,402
-153,-249,409
-136,-222,408
-110,-209,406
-87,-202,406
-67,-201,404
-50,-210,408
-36,-220,409
-23,-239,412
-10,-254,414
3,-271,417
15,-279,417
28,-278,417
34,-269,417
39,-249,417
42,-233,417
39,-204,417
36,-177,414
30,-154,408
29,-136,401
25,-120,399
18,-103,392
9,-98,380
-2,-92,376
-14,-93,371
-27,-99,365
-43,-106,359
-55,-117,352
-58,-126,346
-64,-130,344
-67,-134,340
-68,-134,335
-66,-137,335
-61,-131,333
-56,-128,338
-51,-119,347
-55,-109,348
-54,-96,361
-58,-83,368
-66,-72,386
-79,-66,395
-95,-62,414
-110,-59,424
-121,-53,438
-134,-52,445
-139,-49,452
-144,-49,454
-144,-48,454
-141,-52,454
-135,-49,446
-127,-47,447
-120,-51,442
-114,-50,436
-112,-46,431
-113,-44,433
-118,-39,428
-125,-35,431
-133,-30,430
-143,-23,433
-156,-22,436
-170,-18,437
-182,-20,440
-192,-25,442
-198,-28,442
-200,-37,441
-196,-46,439
-189,-56,438
-175,-61,432
-150,-75,429
-131,-87,425
-106,-94,420
-80,-102,417
-58,-109,414
-30,-107,411
-5,-105,410
16,-98,406
38,-90,406
50,-82,404
59,-72,408
64,-66,412
59,-57,419
54,-49,421
50,-42,421
47,-36,419
43,-30,414
37,-25,409
35,-23,401
36,-20,392
33,-18,381
29,-16,367
30,-14,349
36,-16,331
43,-16,317
52,-21,300
56,-26,285
62,-38,267
67,-47,259
70,-58,245
69,-67,235
63,-79,223
58,-92,210
58,-108,197
53,-125,186
49,-139,180
43,-154,170
34,-171,157
25,-188,150
20,-205,138
17,-218,130
16,-237,121
12,-249,115
11,-263,108
12,-273,98
17,-283,95
19,-290,85
31,-294,81
37,-299,79
46,-298,79
55,-299,77
62,-294,78
66,-286,77
72,-278,81
78,-268,84
84,-254,88
88,-242,90
95,-227,98
100,-212,103
105,-196,109
109,-182,114
114,-174,114
119,-161,116
122,-156,120
124,-148,121
124,-143,120
132,-139,126
135,-130,129
135,-121,128
136,-107,127
135,-94,119
138,-84,115
137,-75,113
138,-67,104
137,-58,102
131,-52,100
121,-42,97
110,-35,92
100,-23,86
95,-22,86
83,-16,84
74,-14,82
64,-14,76
56,-16,78
50,-20,77
46,-27,73
40,-33,68
34,-35,62
33,-41,60
24,-46,56
20,-48,46
17,-46,39
15,-48,31
11,-48,23
8,-48,16
1,-42,6
-3,-43,-5
-10,-39,-14
-18,-36,-27
-22,-34,-37
-28,-30,-49
-33,-30,-59
-39,-28,-70
-39,-31,-80
-44,-30,-89
-41,-29,-95
-37,-30,-103
-34,-31,-109
-25,-36,-113
-24,-38,-119
-16,-40,-122
-13,-39,-121
-13,-40,-124
-16,-35,-124
-19,-32,-126
-25,-31,-125
-33,-28,-125
-41,-23,-126
-46,-20,-120
-48,-18,-121
-47,-13,-122
-39,-11,-120
-26,-14,-119
-17,-12,-125
0,-13,-126
10,-17,-126
19,-25,-127
25,-28,-126
31,-32,-128
36,-37,-124
37,-44,-119
41,-49,-119
46,-52,-117
46,-53,-114
48,-59,-113
54,-62,-105
60,-66,-100
65,-65,-97
73,-62,-93
82,-58,-85
85,-50,-75
94,-40,-67
97,-34,-58
102,-25,-49
110,-19,-37
114,-10,-32
117,-1,-22
121,8,-16
126,14,-12
128,23,-8
131,30,-7
138,33,-5
145,37,-11
148,38,-10
150,39,-14
149,33,-16
144,24,-11
134,23,-11
121,18,-9
109,9,-3
89,8,-5
77,7,-6
74,2,-11
72,0,-19
77,-4,-25
76,-9,-32
76,-13,-35
78,-18,-39
75,-19,-42
79,-24,-47
77,-29,-48
78,-32,-44
75,-39,-43
71,-45,-37
68,-47,-36
68,-50,-29
65,-48,-24
64,-49,-16
59,-46,-12
52,-42,-8
47,-37,-7
51,-33,-2
50,-31,3
49,-27,2
53,-26,3
52,-23,3
54,-22,2
58,-21,3
60,-26,3
62,-30,-3
62,-33,0
60,-37,0
61,-45,0
57,-46,3
56,-48,3
55,-42,0
54,-39,0
56,-35,4
56,-31,4
52,-27,7
51,-23,6
50,-20,13
49,-22,10
50,-22,12
52,-25,11
52,-24,15
53,-31,12
56,-36,12
58,-42,15
59,-47,16
60,-50,18
62,-52,18
57,-53,21
61,-56,24
54,-52,24
52,-49,25
46,-51,23
42,-46,24
39,-44,20
36,-40,17
31,-37,11
25,-37,8
26,-37,7
23,-38,3
21,-38,0
16,-41,-2
17,-40,-7
18,-42,-10
13,-44,-11
12,-44,-15
11,-46,-18
9,-46,-19
11,-45,-21
7,-44,-24
6,-46,-30
9,-47,-33
7,-44,-32
6,-44,-35
3,-42,-37
0,-42,-35
-1,-42,-39
0,-38,-38
-1,-38,-44
0,-42,-44
5,-41,-43
3,-44,-42
-3,-45,-37
-9,-49,-33
-16,-55,-30
-23,-56,-26
-31,-62,-24
-36,-67,-22
-32,-68,-31
-18,-75,-39
-5,-80,-48
10,-91,-50
18,-94,-55
30,-97,-62
38,-100,-61
45,-104,-62
52,-101,-63
54,-99,-61
57,-97,-61
60,-94,-57
59,-87,-53
61,-83,-43
58,-78,-38
60,-71,-29
61,-66,-22
64,-57,-21
67,-52,-12
73,-49,-10
81,-45,-3
87,-41,1
94,-38,2
98,-39,4
99,-40,5
106,-43,5
106,-47,9
107,-51,8
106,-57,9
104,-58,10
99,-57,11
98,-51,12
95,-42,17
97,-28,21
102,-11,21
109,4,29
116,26,31
123,45,37
130,63,40
142,76,44
155,86,51
166,96,55
179,101,61
199,104,64
218,105,68
244,103,78
268,101,79
298,99,91
330,102,104
369,112,117
410,124,134
451,142,154
495,160,177
537,186,203
581,218,228
631,247,254
679,279,281
731,307,312
789,338,342
856,362,371
929,390,402
1006,415,426
1092,439,450
1184,460,480
1283,478,506
1384,493,538
1493,506,568
1602,517,605
1716,524,642
1829,536,685
1944,548,722
2058,556,768
2167,563,808
2275,572,852
2375,585,894
2474,602,939
2563,615,981
2649,622,1025
2732,625,1065
2808,630,1104
2885,626,1144
2961,627,1183
3033,623,1221
3105,621,1257
3171,616,1292
3244,616,1321
3310,620,1348
3373,629,1371
3437,643,1390
3499,654,1397
3558,665,1406
3613,676,1411
3664,677,1414
3712,677,1416
3752,672,1414
3792,669,1411
3829,656,1405
3865,640,1399
3903,616,1390
3936,606,1382
3969,586,1378
3997,562,1372
4015,532,1373
4024,509,1367
4027,488,1360
4022,468,1347
4019,449,1328
4010,438,1303
3998,426,1278
3983,414,1245
3968,407,1217
3944,401,1182
3918,390,1146
3886,380,1114
3844,367,1080
3796,348,1047
3742,324,1018
3680,294,982
3621,263,947
3558,236,908
3492,215,873
3436,192,828
3374,171,790
3317,157,750
3253,140,708
3191,126,672
3124,115,636
3049,98,601
2971,82,568
2891,63,542
2814,54,507
2737,46,479
2668,44,452
2598,51,425
2532,61,400
2471,80,378
2413,105,357
2359,128,338
2308,141,322
2261,159,312
2213,170,299
2169,171,293
2126,170,287
2086,156,280
2048,150,273
2002,137,267
1963,125,258
1921,111,249
1881,106,236
1838,102,222
1792,101,206
1742,102,187
1691,107,173
1639,108,157
1580,105,146
1526,108,137
1466,110,123
1419,108,114
1372,102,100
1334,91,87
1300,80,76
1273,70,65
1255,56,49
1240,40,34
1224,24,23
1212,5,6
1204,-14,-9
1202,-32,-30
1197,-50,-49
1195,-67,-69
1192,-75,-87
1180,-87,-102
1167,-92,-113
1151,-95,-126
1130,-99,-135
1107,-101,-140
1080,-110,-144
1052,-118,-144
1019,-131,-145
986,-144,-139
952,-158,-133
921,-167,-127
891,-170,-114
859,-169,-109
831,-170,-101
806,-167,-91
781,-168,-81
756,-172,-67
734,-180,-55
713,-191,-41
687,-207,-27
661,-222,-10
631,-233,9
600,-245,26
561,-255,40
528,-268,59
493,-279,75
459,-277,90
429,-278,107
398,-275,117
380,-277,126
361,-274,133
351,-274,136
343,-273,136
339,-270,133
335,-271,126
340,-273,123
338,-270,116
339,-274,107
339,-282,105
334,-289,102
327,-293,98
316,-300,98
301,-305,95
284,-314,91
266,-325,83
255,-340,73
244,-358,61
238,-382,54
236,-410,36
240,-438,19
246,-468,9
259,-498,-7
274,-527,-17
292,-554,-24
308,-573,-29
328,-593,-28
347,-609,-31
364,-622,-21
383,-637,-15
396,-651,-8
415,-670,0
430,-694,9
445,-723,18
456,-752,27
469,-788,43
477,-826,56
482,-864,73
486,-901,93
488,-934,108
494,-971,129
494,-998,143
496,-1018,161
492,-1031,170
491,-1038,182
484,-1039,188
481,-1027,190
473,-1006,193
469,-973,188
464,-929,181
454,-880,170
452,-827,165
451,-781,153
455,-741,147
455,-712,142
460,-694,138
465,-674,135
463,-659,136
457,-649,134
449,-632,135
433,-602,139
418,-563,139
396,-515,137
377,-464,137
359,-411,140
341,-365,138
324,-328,139
308,-294,142
297,-263,146
287,-235,152
280,-212,157
274,-184,158
266,-159,159
262,-135,162
257,-105,160
254,-76,162
254,-42,156
255,-4,149
259,34,142
268,74,131
275,115,119
284,150,107
291,185,97
299,216,87
311,245,76
322,265,64
337,281,52
348,297,40
359,314,28
375,331,8
390,348,-10
407,360,-31
425,372,-52
439,380,-73
454,388,-95
466,396,-118
481,403,-139
490,413,-165
505,421,-186
521,432,-215
541,434,-240
560,442,-268
581,451,-294
603,463,-323
628,473,-352
654,485,-377
679,497,-404
705,508,-427
731,522,-449
755,533,-470
774,544,-487
793,557,-501
809,573,-510
825,587,-519
839,600,-528
852,617,-534
865,629,-538
874,640,-534
882,653,-531
885,662,-532
887,677,-527
884,685,-524
879,690,-523
866,693,-514
855,694,-516
839,693,-514
820,686,-509
795,678,-506
771,672,-506
742,658,-499
715,644,-490
696,631,-485
686,616,-479
679,606,-475
681,604,-468
696,603,-462
708,609,-456
730,614,-452
750,620,-435
771,624,-424
785,627,-410
788,626,-395
783,617,-375
767,608,-360
742,589,-343
711,573,-328
675,547,-310
637,517,-296
608,493,-289
576,467,-281
549,456,-271
525,447,-266
509,440,-257
500,444,-253
497,445,-247
498,452,-238
497,459,-228
498,468,-224
497,479,-213
492,488,-201
489,493,-194
483,492,-183
479,482,-173
472,465,-169
466,444,-158
457,415,-153
447,387,-148
437,360,-143
426,337,-144
413,325,-141
402,316,-138
396,317,-140
389,320,-136
380,328,-138
377,341,-132
373,361,-126
368,376,-120
366,401,-112
363,419,-105
364,438,-95
359,448,-88
358,462,-76
352,467,-70
348,469,-65
343,468,-54
338,458,-50
334,442,-42
334,422,-35
332,397,-28
328,367,-27
328,328,-18
323,291,-12
315,256,-5
302,223,5
288,204,14
267,191,26
246,184,35
220,185,45
197,190,55
171,197,61
146,212,67
123,229,74
100,247,80
79,268,82
63,289,86
51,306,88
41,319,88
31,330,89
26,332,90
18,334,87
9,325,87
0,308,91
-8,284,90
-16,259,92
-24,233,94
-34,198,97
-44,169,95
-60,137,96
-70,110,96
-83,83,97
-93,58,93
-106,31,93
-117,11,92
-122,-14,91
-132,-35,90
-139,-59,88
-141,-77,84
-143,-99,79
-137,-127,77
-136,-150,76
-133,-175,73
-139,-200,79
-147,-224,90
-162,-236,96
-175,-249,110
-189,-249,121
-203,-246,131
-210,-238,144
-210,-227,147
-202,-211,154
-194,-189,153
-185,-162,158
-175,-135,165
-162,-107,168
-149,-80,167
-134,-53,173
-121,-30,167
-110,-13,172
-97,0,171
-88,7,174
-85,15,174
-80,19,183
-78,21,189
-81,22,195
-90,23,206
-92,22,215
-98,25,224
-96,22,232
-96,23,239
-97,27,245
-95,29,248
-92,35,256
-90,38,264
-85,35,272
-82,35,278
-75,35,286
-70,29,296
-64,23,307
-58,18,313
-51,8,325
-50,1,334
-48,-6,341
-47,-10,352
-43,-12,363
-44,-11,377
-43,-6,389
-41,1,401
-43,11,416
-42,23,429
-41,37,440
-40,49,454
-42,59,468
-43,66,481
-44,71,495
-47,74,508
-48,75,521
-50,70,534
-50,54,546
-54,41,561
-57,24,575
-62,6,587
-62,-9,595
-58,-27,604
-56,-31,606
-47,-40,612
-43,-45,609
-31,-49,611
-18,-54,609
-1,-64,604
15,-70,594
31,-82,583
47,-94,579
63,-116,574
73,-133,569
89,-159,568
99,-181,561
110,-199,556
127,-220,549
139,-241,541
154,-261,530
163,-281,525
175,-301,519
179,-320,510
184,-336,507
181,-348,505
173,-358,507
161,-366,508
150,-370,509
136,-370,507
124,-370,504
119,-367,494
123,-366,478
132,-362,461
144,-352,441
158,-343,422
173,-337,404
187,-331,391
200,-327,384
206,-328,383
206,-336,380
205,-347,384
200,-360,388
192,-386,398
177,-409,404
157,-440,418
136,-468,428
110,-492,438
80,-510,446
55,-520,446
31,-523,446
13,-523,445
-3,-518,435
-17,-510,426
-26,-498,415
-34,-482,399
-39,-467,387
-43,-445,371
-43,-429,356
-44,-417,345
-43,-404,329
-38,-389,317
-35,-377,303
-30,-375,293
-33,-363,281
-31,-361,272
-36,-366,257
-38,-368,245
-44,-374,233
-43,-386,218
-46,-389,202
-46,-398,186
-51,-400,171
-53,-401,151
-57,-406,130
-61,-400,109
-60,-399,84
-60,-392,65
-62,-381,45
-64,-370,23
-68,-359,6
-73,-348,-8
-82,-334,-23
-92,-320,-40
-99,-310,-51
-111,-303,-65
-118,-292,-80
-123,-289,-92
-132,-285,-102
-140,-285,-110
-145,-284,-121
-153,-286,-130
-164,-287,-138
-174,-285,-147
-190,-284,-154
-197,-288,-165
-213,-286,-174
-224,-287,-184
-236,-281,-202
-245,-274,-212
-258,-270,-228
-263,-262,-244
-271,-249,-259
-281,-239,-275
-287,-231,-294
-292,-220,-310
-299,-210,-332
-302,-204,-345
-314,-198,-359
-322,-201,-368
-334,-203,-376
-347,-207,-384
-355,-212,-388
-372,-211,-393
-380,-214,-399
-389,-220,-409
-390,-223,-417
-390,-225,-425
-384,-229,-431
-383,-235,-436
-380,-236,-443
-376,-238,-449
-375,-235,-448
-369,-236,-450
-373,-234,-455
-374,-231,-455
-376,-229,-458
-379,-223,-460
-383,-215,-463
-386,-208,-459
-389,-195,-462
-395,-184,-466
-397,-171,-466
-404,-158,-467
-409,-139,-470
-414,-132,-469
-417,-116,-475
-419,-109,-478
-415,-105,-481
-414,-96,-484
-406,-93,-492
-396,-92,-491
-387,-93,-495
-375,-95,-497
-363,-94,-499
-349,-97,-497
-337,-102,-496
-330,-102,-500
-326,-99,-498
-320,-94,-505
-317,-94,-505
-313,-88,-508
-307,-83,-511
-302,-79,-517
-291,-67,-527
-282,-55,-536
-268,-46,-546
-250,-36,-559
-237,-25,-572
-220,-11,-587
-205,-1,-603
-193,7,-616
-180,26,-628
-172,40,-638
-164,52,-650
-159,61,-658
-162,66,-669
-165,70,-677
-166,68,-684
-170,63,-691
-179,55,-698
-180,48,-706
-186,36,-714
-192,27,-722
-198,12,-730
-207,2,-737
-217,-8,-743
-232,-17,-750
-241,-22,-756
-254,-26,-762
-267,-26,-767
-277,-24,-769
-289,-24,-777
-299,-21,-780
-305,-23,-784
-310,-22,-788
-315,-28,-787
-320,-34,-790
-324,-49,-792
-325,-68,-788
-330,-92,-786
-341,-120,-779
-352,-150,-774
-361,-184,-768
-372,-221,-758
-381,-258,-751
-392,-285,-743
-399,-315,-737
-403,-342,-735
-400,-363,-732
-395,-379,-732
-387,-394,-732
-377,-392,-731
-365,-393,-734
-354,-387,-729
-340,-374,-733
-331,-360,-729
-319,-340,-729
-309,-318,-724
-301,-296,-721
-299,-273,-707
-300,-245,-694
-302,-217,-683
-307,-195,-665
-317,-172,-650
-327,-156,-627
-340,-139,-607
-354,-127,-587
-368,-118,-566
-375,-118,-546
-384,-117,-528
-391,-117,-513
-391,-120,-496
-394,-122,-480
-390,-132,-466
-386,-140,-454
-380,-144,-446
-368,-151,-436
-362,-151,-429
-348,-156,-424
-334,-156,-417
-319,-160,-408
-305,-165,-403
-291,-174,-400
-275,-180,-401
-255,-195,-394
-238,-204,-392
-219,-215,-387
-201,-229,-377
-186,-239,-375
-174,-255,-364
-165,-265,-347
-152,-280,-332
-140,-291,-318
-130,-304,-301
-118,-313,-282
-107,-322,-263
-94,-328,-242
-79,-332,-220
-68,-334,-199
-51,-333,-178
-37,-329,-159
-26,-321,-137
-17,-313,-118
-11,-302,-93
-7,-291,-71
-8,-278,-52
-10,-265,-29
-12,-253,-7
-18,-242,13
-24,-233,33
-30,-222,54
-43,-217,68
-52,-210,83
-58,-202,100
-62,-198,114
-63,-192,125
-67,-188,133
-68,-181,140
-66,-173,145
-63,-165,148
-60,-158,154
-53,-149,153
-46,-136,160
-48,-126,165
-47,-113,170
-50,-100,174
-56,-86,182
-71,-70,189
-85,-57,199
-95,-46,206
-97,-38,209
-95,-39,207
-88,-37,210
-81,-39,209
-77,-43,213
-72,-47,218
-67,-49,223
-62,-55,224
-55,-62,228
-52,-66,231
-45,-74,236
-43,-79,237
-37,-86,244
-32,-90,249
-30,-87,254
-23,-93,257
-18,-92,264
-17,-91,271
-15,-88,273
-16,-79,279
-16,-80,281
-20,-74,283
-22,-71,287
-26,-69,289
-35,-68,292
-40,-68,294
-49,-70,296
-56,-71,300
-64,-70,306
-69,-64,309
-71,-63,311
-70,-60,313
-69,-57,317
-66,-50,317
-58,-42,320
-55,-35,324
-49,-22,321
-46,-15,323
-42,-7,321
-41,1,325
-41,8,327
-43,11,332
-46,15,334
-48,19,336
-51,24,340
-52,29,347
-55,33,347
-53,37,343
-51,43,343
-53,49,345
-48,56,344
-45,61,343
-44,67,340
-38,69,341
-36,72,342
-31,76,339
-27,76,340
-20,80,338
-14,80,338
-7,82,339
-3,84,335
8,88,338
15,92,340
26,93,341
37,99,339
53,104,341
66,108,340
80,116,336
93,114,339
105,111,341
114,110,342
122,104,342
129,92,341
134,82,347
137,66,352
134,51,358
124,38,363
115,27,370
108,19,379
98,7,386
92,4,384
91,-3,383
99,-12,379
110,-17,372
122,-22,361
135,-21,352
145,-25,346
153,-26,342
161,-30,336
166,-36,335
169,-44,330
176,-52,328
181,-58,325
180,-71,323
179,-84,324
179,-98,319
176,-112,324
170,-119,322
164,-123,323
158,-123,325
150,-121,323
143,-112,318
140,-100,320
133,-91,318
129,-76,314
126,-62,307
127,-50,301
128,-44,301
132,-40,297
133,-41,289
133,-46,287
138,-53,285
139,-62,283
142,-74,287
143,-88,289
141,-104,288
144,-120,289
144,-137,290
150,-144,296
150,-155,296
152,-166,301
152,-170,302
149,-174,301
147,-178,303
146,-179,303
144,-179,299
145,-178,299
143,-171,296
143,-166,296
145,-162,294
145,-156,289
152,-150,289
153,-146,284
159,-146,280
161,-145,281
168,-143,277
172,-147,278
175,-150,276
179,-148,274
182,-151,273
180,-150,274
179,-148,272
177,-151,272
177,-149,270
167,-151,265
160,-148,261
155,-155,255
147,-154,251
141,-155,245
135,-157,235
130,-157,226
125,-161,214
124,-160,197
122,-160,184
120,-158,173
122,-161,157
122,-167,143
120,-169,130
121,-173,118
120,-176,106
118,-177,100
115,-170,88
117,-169,82
116,-159,69
119,-154,57
126,-151,52
134,-143,41
136,-138,36
139,-130,33
141,-118,25
138,-107,19
135,-101,16
138,-89,14
132,-83,9
127,-80,7
122,-79,0
114,-76,-2
108,-81,-7
100,-86,-14
93,-94,-19
88,-102,-24
81,-109,-29
71,-114,-36
62,-115,-39
49,-111,-47
35,-113,-51
21,-117,-49
3,-118,-52
-15,-119,-51
-38,-116,-49
-52,-115,-53
-68,-117,-57
-83,-119,-63
-96,-124,-71
-106,-125,-78
-112,-126,-95
-118,-128,-111
-122,-129,-128
-125,-130,-147
-127,-131,-165
-128,-131,-183
-125,-132,-201
-125,-126,-217
-121,-122,-234
-117,-120,-250
-115,-120,-268
-110,-117,-282
-109,-120,-292
-108,-116,-299
-106,-116,-308
-106,-116,-316
-105,-119,-319
-106,-122,-326
-106,-127,-328
-104,-127,-327
-102,-133,-330
-101,-135,-330
-94,-137,-331
-86,-136,-331
-80,-131,-337
-67,-129,-340
-61,-119,-343
-46,-113,-343
-37,-98,-343
-30,-88,-341
-18,-74,-345
-8,-65,-342
6,-58,-340
16,-49,-340
28,-45,-339
41,-37,-337
55,-40,-340
65,-39,-344
74,-42,-343
83,-42,-346
88,-42,-349
91,-48,-347
88,-51,-348
79,-54,-348
74,-57,-344
65,-61,-342
56,-63,-341
50,-66,-339
36,-69,-344
28,-67,-342
24,-72,-349
25,-76,-354
27,-80,-356
32,-89,-360
37,-95,-363
44,-101,-364
47,-112,-363
49,-118,-361
49,-120,-359
47,-121,-355
47,-120,-345
45,-113,-336
41,-103,-328
37,-96,-313
32,-81,-306
33,-68,-295
30,-54,-285
28,-39,-276
27,-26,-268
26,-13,-262
20,-1,-255
14,12,-249
9,25,-243
0,33,-233
-13,46,-222
-31,57,-211
-42,71,-203
-60,73,-191
-77,75,-178
-92,77,-166
-110,71,-152
-120,63,-137
-130,56,-124
-137,47,-113
-139,34,-104
-140,24,-95
-137,14,-85
-138,1,-78
-135,-8,-71
-133,-18,-65
-134,-26,-60
-135,-36,-54
-137,-45,-51
-140,-57,-43
-145,-67,-39
-147,-79,-31
-152,-92,-25
-156,-102,-20
-160,-115,-14
-161,-124,-9
-159,-132,-3
-158,-137,-4
-154,-141,-4
-147,-140,-5
-138,-141,-4
-129,-144,-5
-123,-136,-11
-114,-133,-11
-106,-126,-12
-100,-120,-13
-101,-114,-13
-99,-107,-13
-101,-103,-14
-104,-100,-10
-106,-100,-10
-112,-93,-8
-114,-93,-11
-117,-88,-8
-115,-92,-11
-116,-91,-17
-108,-95,-17
-100,-94,-23
-88,-97,-23
-82,-95,-25
-75,-98,-24
-70,-98,-23
-64,-89,-21
-62,-84,-23
-65,-73,-21
-67,-58,-19
-69,-46,-18
-70,-37,-18
-72,-28,-22
-72,-25,-23
-70,-26,-24
-64,-28,-21
-65,-35,-23
-63,-46,-22
-58,-54,-18
-56,-65,-18
-53,-78,-15
-47,-83,-15
-44,-87,-9
-41,-88,-6
-37,-83,-3
-35,-79,3
-37,-73,9
-34,-64,14
-30,-60,18
-27,-55,21
-24,-46,28
-22,-42,28
-16,-37,29
-15,-33,33
-9,-33,36
-6,-35,36
0,-35,36
3,-42,36
3,-47,33
7,-51,38
10,-57,39
11,-59,32
15,-65,37
18,-67,32
24,-69,32
28,-65,30
27,-63,30
29,-61,26
32,-59,23
32,-53,20
32,-49,21
33,-46,16
34,-49,18
32,-50,19
30,-52,19
25,-53,17
20,-54,15
18,-59,19
14,-58,16
10,-59,16
7,-62,15
3,-63,13
2,-59,14
-2,-62,13
-5,-59,14
-9,-56,11
-12,-59,8
-14,-57,10
-16,-55,8
-16,-51,7
-15,-45,4
-14,-41,4
-11,-36,5
-6,-32,3
-3,-25,4
2,-22,2
5,-16,2
10,-8,6
14,-2,5
17,5,8
16,8,7
22,10,8
24,14,9
25,17,12
25,17,17
19,17,15
16,13,21
10,14,26
4,13,28
-6,12,33
-14,14,34
-20,12,35
-16,12,34
-11,8,28
-3,4,23
-1,0,22
2,-4,22
8,-11,19
6,-9,20
9,-8,20
7,-9,17
4,-5,19
0,-3,21
-4,0,24
-13,3,23
-18,5,26
-23,13,25
-26,12,28
-32,17,27
-33,18,28
-36,17,26
-35,16,24
-33,16,23
-35,14,22
-35,11,21
-35,11,17
-35,9,17
-32,2,19
-33,0,15
-30,-7,15
-33,-8,15
-27,-9,13
-25,-11,12
-21,-9,10
-17,-13,11
-10,-11,8
-6,-12,6
-2,-9,5
0,-7,12
0,-6,11
2,-5,16
-3,0,18
-5,-4,21
-12,-1,25
-14,-5,24
-22,-5,27
-26,-10,27
-26,-15,26
-27,-20,21
-25,-22,20
-28,-27,16
-24,-28,11
-24,-32,8
-23,-34,5
-20,-33,0
-17,-31,-2
-14,-30,-4
-9,-28,-6
-6,-25,-6
-2,-23,-8
3,-19,-5
4,-19,-10
7,-19,-8
9,-19,-5
9,-18,-2
10,-17,-2
13,-16,-4
8,-10,-3
12,-8,0
12,-1,0
11,2,-3
16,6,-2
18,8,-5
25,11,-4
24,12,-2
22,12,0
20,14,4
15,19,7
11,20,9
5,24,14
-4,28,21
-7,30,22
-5,34,19
0,30,15
5,26,11
14,24,7
20,19,8
24,19,9
30,17,6
30,18,8
30,17,6
32,19,11
30,17,12
30,18,16
24,17,18
20,20,18
20,23,21
12,25,19
11,25,23
5,25,21
4,27,20
7,28,25
5,27,24
8,27,24
11,27,20
12,27,19
19,26,19
23,21,17
29,19,19
31,19,16
35,17,17
46,15,17
50,14,12
59,16,11
68,13,10
75,14,10
77,10,8
83,7,8
86,3,7
89,-1,9
95,-4,13
95,0,10
101,2,14
104,10,9
105,15,11
107,22,12
110,30,9
111,35,11
114,42,11
119,46,13
125,48,12
134,52,14
141,55,17
151,59,12
162,56,13
177,57,14
195,59,15
211,59,14
234,63,13
255,74,15
282,82,15
330,103,10
327,134,14
364,142,16
396,157,20
426,167,21
457,179,24
490,187,27
518,194,28
551,199,30
576,199,34
609,198,34
639,194,34
671,186,37
702,176,33
734,169,33
766,162,34
799,161,31
827,161,30
854,164,29
881,165,31
906,170,31
939,171,27
978,175,21
1016,172,17
1053,173,15
1091,165,15
1133,161,18
1169,152,15
1205,147,17
1244,136,16
1281,121,14
1314,111,12
1347,101,15
1373,84,15
1396,71,12
1415,57,13
1430,43,12
1442,32,11
1451,17,6
1457,8,5
1464,-1,3
1466,-10,-1
1471,-19,0
1472,-23,-3
1473,-27,-8
1475,-30,-15
1476,-29,-20
1473,-32,-24
1472,-35,-30
1470,-35,-35
1473,-39,-42
1471,-33,-45
1466,-32,-50
1462,-26,-50
1457,-23,-55
1447,-24,-53
1445,-23,-49
1438,-26,-53
1430,-27,-54
1421,-33,-51
1413,-37,-49
1403,-46,-48
1390,-48,-45
1375,-55,-40
1358,-62,-36
1344,-63,-29
1325,-67,-22
1303,-71,-9
1280,-77,-2
1254,-87,11
1226,-88,22
1194,-94,35
1165,-101,43
1133,-103,56
1094,-106,65
1062,-107,77
1024,-102,84
987,-93,91
945,-78,98
900,-59,102
861,-43,108
825,-26,116
789,-2,116
758,20,114
725,42,114
691,68,110
660,87,106
626,104,101
590,119,97
560,128,91
531,129,84
504,126,77
481,112,72
460,97,65
438,101,57
427,85,53
405,79,55
381,71,48
359,75,46
338,77,44
319,80,41
309,88,36
294,93,33
285,102,33
273,111,34
265,118,45
257,122,53
246,127,65
233,127,78
218,130,84
200,129,99
181,125,111
159,120,126
133,111,138
107,99,150
86,84,162
67,71,168
52,58,176
40,45,182
31,35,183
31,25,186
32,19,183
41,16,177
48,14,177
62,17,173
73,16,170
85,19,162
94,20,157
103,22,155
110,27,148
118,32,145
124,36,142
131,42,142
135,48,135
143,56,130
148,54,130
157,59,129
169,57,129
181,60,124
197,59,121
206,59,126
217,54,124
219,53,128
223,55,134
222,58,132
220,62,136
215,67,138
214,70,137
213,73,140
208,74,142
207,75,142
203,76,141
193,78,141
187,82,143
173,91,141
158,94,142
142,100,141
126,104,142
104,106,141
82,107,140
65,103,139
45,96,137
26,90,139
7,82,138
-11,73,133
-31,60,132
-50,53,130
-68,43,122
-84,31,115
-102,14,109
-117,1,105
-135,-8,100
-155,-14,99
-177,-20,95
-193,-16,90
-210,-18,94
-223,-13,89
-234,-10,92
-247,-3,89
-254,0,86
-263,2,82
-269,2,78
-273,-2,73
-278,-7,70
-286,-9,65
-291,-9,57
-301,-12,50
-306,-21,39
-316,-26,29
-330,-37,18
-343,-48,9
-350,-60,-5
-355,-71,-20
-356,-83,-37
-353,-87,-55
-346,-91,-67
-336,-93,-84
-328,-91,-95
-320,-90,-104
-308,-85,-113
-298,-81,-116
-290,-75,-115
-284,-69,-115
-279,-65,-111
-279,-61,-110
-278,-58,-106
-275,-56,-99
-279,-50,-95
-283,-51,-96
-285,-45,-91
-293,-43,-90
-298,-43,-84
-302,-43,-85
-303,-44,-81
-301,-45,-81
-307,-43,-81
-312,-42,-76
-315,-40,-74
-319,-36,-68
-331,-32,-64
-339,-22,-57
-348,-18,-54
-359,-10,-47
-365,-3,-39
-371,2,-33
-376,6,-28
-380,8,-19
-385,9,-14
-386,6,-6
-389,-1,7
-392,-9,19
-398,-17,29
-403,-30,41
-412,-47,59
-422,-66,76
-436,-86,92
-451,-105,113
-462,-124,133
-480,-142,151
-495,-160,169
-508,-176,186
-516,-186,201
-524,-186,214
-527,-183,227
-529,-176,237
-530,-165,248
-526,-149,252
-522,-128,257
-518,-99,260
-511,-65,261
-508,-29,264
-502,11,264
-496,51,266
-488,97,265
-484,142,265
-476,187,262
-474,227,264
-473,272,266
-477,307,269
-476,337,272
-477,366,272
-482,384,271
-481,398,269
-478,407,268
-477,413,268
-481,422,265
-491,424,267
-496,426,271
-513,436,266
-525,446,274
-543,463,275
-560,481,281
-583,505,283
-604,522,286
-628,536,287
-643,542,287
-658,548,293
-675,549,296
-688,542,301
-707,535,313
-732,530,321
-761,521,329
-795,512,339
-837,498,353
-883,479,357
-923,455,355
-956,437,342
-972,429,317
-966,431,279
-933,448,219
-871,483,148
-793,527,69
-719,579,-6
-658,623,-69
-632,661,-118
-639,684,-154
-673,692,-179
-729,681,-195
-783,649,-202
-830,596,-210
-856,521,-220
-858,447,-237
-837,376,-259
-796,309,-287
-737,256,-317
-677,216,-346
-622,185,-378
-578,150,-408
-549,109,-433
-543,72,-453
-559,32,-470
-580,-10,-479
-613,-50,-485
-649,-101,-495
-688,-166,-499
-735,-252,-503
-782,-359,-507
-824,-479,-506
-863,-591,-519
-879,-694,-534
-887,-781,-555
-882,-851,-577
-869,-899,-600
-852,-931,-623
-831,-953,-643
-807,-953,-658
-779,-943,-667
-750,-920,-674
-719,-889,-667
-693,-844,-655
-664,-781,-641
-629,-705,-618
-595,-621,-590
-557,-524,-558
-512,-426,-523
-470,-322,-491
-425,-215,-451
-373,-114,-406
-326,-15,-358
-287,65,-306
-246,128,-253
-213,179,-198
-189,221,-143
-164,256,-88
-148,291,-32
-132,320,17
-114,342,59
-103,358,99
-89,361,133
-74,349,163
-55,336,183
-38,316,205
-31,291,216
-32,266,224
-39,244,233
-50,222,236
-67,205,239
-86,189,239
-102,170,231
-119,157,221
-132,141,210
-142,131,199
-151,119,181
-151,120,163
-153,123,145
-147,132,122
-138,142,100
-126,161,79
-108,170,54
-88,187,32
-69,207,11
-51,229,-5
-32,251,-25
-16,268,-31
3,283,-37
19,297,-42
32,309,-42
50,317,-41
61,329,-40
71,336,-40
78,346,-34
87,362,-29
90,379,-23
101,407,-15
114,433,-9
124,460,-3
137,494,2
152,530,7
158,568,8
171,609,16
180,659,20
179,722,30
181,783,42
182,845,59
186,906,71
197,959,83
213,1013,92
233,1064,99
260,1115,104
299,1155,106
337,1180,105
369,1185,108
406,1178,112
447,1168,106
482,1152,98
490,1133,103
457,1107,115
389,1057,129
284,979,144
158,886,161
15,790,177
-133,675,202
-279,540,230
-413,396,269
-537,244,308
-635,84,340
-698,-72,363
-739,-227,381
-753,-376,382
-744,-527,378
-729,-675,369
-709,-813,357
-695,-937,343
-688,-1043,315
-679,-1151,275
-681,-1248,221
-681,-1340,156
-686,-1425,86
-687,-1495,3
-685,-1548,-82
-684,-1580,-172
-674,-1587,-262
-660,-1575,-351
-641,-1543,-428
-613,-1495,-504
-582,-1427,-572
-549,-1348,-627
-521,-1264,-669
-488,-1172,-697
-457,-1072,-712
-426,-963,-721
-397,-848,-716
-368,-733,-698
-342,-611,-676
-319,-494,-647
-293,-378,-611
-273,-273,-570
-254,-172,-524
-234,-79,-481
-210,6,-440
-189,85,-400
-159,151,-363
-129,217,-334
-100,271,-305
-67,319,-285
-36,355,-267
-6,383,-254
19,401,-241
47,411,-228
67,413,-216
91,401,-206
113,386,-197
132,363,-185
149,342,-168
161,317,-149
169,294,-122
180,275,-90
187,259,-53
189,253,-17
191,252,22
186,257,57
182,276,90
169,299,120
162,333,146
157,376,174
160,423,187
167,474,201
182,534,210
201,605,214
221,690,215
239,785,213
254,884,210
262,988,203
265,1085,197
261,1170,189
252,1221,183
246,1234,183
236,1221,185
234,1197,186
232,1184,183
233,1163,183
235,1132,176
235,1095,169
230,1066,164
207,1028,154
159,977,143
99,903,132
24,810,121
-51,707,105
-128,587,88
-186,445,64
-227,287,43
-257,138,21
-269,-5,-6
-267,-160,-35
-248,-330,-60
-228,-497,-85
-211,-668,-94
-210,-808,-96
-214,-925,-84
-219,-1033,-73
-217,-1168,-60
-211,-1327,-39
-227,-1495,-19
-250,-1652,0
-275,-1789,8
-295,-1906,9
-315,-2001,-1
-331,-2078,-22
-339,-2142,-36
-352,-2198,-46
-357,-2240,-64
-350,-2270,-84
-336,-2279,-111
-310,-2274,-141
-278,-2253,-171
-237,-2210,-198
-199,-2143,-224
-159,-2068,-248
-123,-1978,-266
-94,-1881,-270
-65,-1775,-269
-42,-1660,-265
-22,-1532,-254
-7,-1403,-241
3,-1279,-221
11,-1162,-193
13,-1056,-162
18,-960,-132
28,-871,-106
36,-792,-84
59,-716,-62
79,-649,-41
102,-587,-26
131,-533,-4
162,-481,14
189,-431,25
221,-385,37
250,-334,44
274,-283,52
292,-233,58
307,-175,65
316,-120,75
320,-69,84
315,-18,97
307,26,112
291,67,128
273,104,145
251,137,161
226,167,180
200,183,196
174,196,212
149,203,228
120,203,239
94,203,246
73,202,247
53,201,243
40,198,239
33,195,229
37,189,220
43,182,206
48,179,196
56,174,184
59,175,174
61,169,166
61,167,159
60,159,152
57,160,145
59,158,137
62,151,126
69,149,116
77,146,104
93,139,91
110,122,80
134,106,71
160,91,61
194,70,52
225,42,44
264,11,38
306,-25,26
349,-59,20
392,-84,7
433,-103,0
455,-110,-9
466,-111,-10
459,-104,-3
448,-85,4
436,-50,12
423,-11,18
414,17,20
413,22,20
416,3,16
419,-29,9
413,-65,4
387,-106,-4
335,-147,-8
248,-193,-8
144,-255,7
18,-341,20
-98,-457,35
-202,-589,45
-280,-713,51
-342,-820,42
-391,-904,25
-420,-970,4
-442,-1025,-19
-454,-1068,-41
-455,-1100,-60
-439,-1120,-81
-409,-1127,-100
-362,-1133,-119
-301,-1143,-135
-228,-1161,-146
-150,-1176,-148
-80,-1190,-141
-14,-1194,-127
33,-1179,-103
71,-1140,-73
93,-1079,-35
101,-1002,4
103,-914,45
92,-810,84
84,-698,118
74,-573,149
67,-449,181
55,-329,210
45,-212,239
39,-103,267
32,-1,289
27,100,303
22,186,310
22,258,317
27,312,316
35,348,308
43,369,301
47,380,299
41,381,296
34,367,299
18,342,293
3,312,290
-11,269,282
-28,224,273
-41,175,265
-59,124,253
-72,75,241
-90,27,227
-100,-15,208
-111,-52,196
-118,-80,175
-124,-94,150
-124,-94,125
-122,-90,97
-114,-77,65
-101,-60,35
-84,-40,4
-66,-20,-26
-47,3,-60
-23,21,-86
-3,38,-113
16,54,-138
37,63,-161
59,74,-177
70,79,-191
91,82,-201
101,83,-211
113,77,-216
118,75,-218
123,67,-213
124,58,-209
125,45,-205
127,35,-199
128,21,-193
123,6,-188
120,-5,-182
122,-13,-176
115,-26,-172
115,-36,-168
112,-46,-160
106,-56,-155
95,-64,-141
85,-69,-126
75,-78,-113
55,-82,-98
31,-89,-76
9,-99,-55
-17,-104,-33
-41,-115,-13
-67,-125,5
-89,-141,19
-108,-163,31
-122,-184,41
-132,-215,48
-138,-248,55
-135,-286,56
-130,-329,58
-121,-379,57
-116,-425,56
-104,-476,54
-99,-527,51
-88,-573,48
-81,-626,41
-77,-675,36
-70,-727,28
-68,-774,15
-62,-823,8
-61,-869,0
-65,-913,-7
-71,-951,-16
-79,-987,-26
-85,-1016,-32
-92,-1044,-39
-101,-1065,-50
-106,-1074,-62
-115,-1081,-70
-122,-1078,-82
-130,-1074,-91
-136,-1071,-96
-139,-1075,-105
-142,-1080,-115
-139,-1089,-124
-130,-1098,-132
-111,-1109,-137
-94,-1116,-141
-80,-1123,-142
-70,-1122,-134
-64,-1116,-125
-60,-1108,-118
-51,-1094,-105
-31,-1081,-90
-12,-1061,-83
12,-1045,-68
33,-1042,-58
61,-1048,-54
87,-1049,-48
115,-1042,-43
131,-1027,-32
139,-1008,-18
145,-997,-4
138,-975,11
125,-950,32
102,-913,46
75,-864,59
45,-811,69
18,-766,74
-3,-724,76
-19,-678,74
-31,-645,70
-41,-619,65
-48,-607,60
-52,-587,52
-63,-554,48
-70,-511,36
-79,-478,25
-85,-461,19
-93,-447,7
-103,-432,-1
-110,-410,-5
-119,-391,-11
-130,-373,-19
-143,-355,-35
-152,-334,-45
-155,-297,-62
-154,-260,-76
-155,-228,-93
-155,-215,-100
-156,-199,-109
-152,-189,-115
-151,-174,-121
-137,-154,-130
-120,-124,-135
-104,-100,-138
-84,-76,-141
-68,-48,-139
-53,-19,-141
-44,13,-135
-40,41,-132
-51,65,-129
-67,81,-123
-84,98,-119
-103,115,-115
-113,134,-114
-124,156,-112
-132,185,-115
-128,217,-120
-121,258,-125
-105,307,-140
-95,363,-152
-85,425,-164
-80,484,-182
-71,539,-197
-71,589,-214
-71,632,-227
-71,668,-244
-74,697,-258
-77,725,-273
-86,747,-280
-97,767,-293
-110,790,-302
-114,809,-311
-112,835,-318
-100,872,-327
-84,908,-338
-60,946,-340
-39,978,-342
-11,1008,-341
13,1031,-341
38,1041,-328
60,1050,-321
79,1045,-309
96,1034,-297
106,1026,-289
107,1019,-274
106,1024,-256
93,1027,-238
75,1029,-221
52,1033,-212
19,1037,-199
-14,1040,-197
-41,1037,-191
-68,1026,-196
-93,1014,-206
-105,999,-218
-105,996,-237
-95,1008,-262
-80,1026,-288
-64,1049,-317
-46,1075,-345
-26,1093,-368
-11,1105,-391
3,1109,-413
10,1106,-433
19,1091,-452
24,1070,-468
20,1042,-485
16,1008,-501
4,986,-522
-10,974,-543
-30,982,-560
-54,997,-576
-73,1011,-592
-98,1014,-607
-114,1010,-618
-122,1006,-630
-126,1000,-635
-119,989,-639
-114,973,-647
-102,947,-652
-97,911,-656
-89,876,-657
-80,834,-658
-71,803,-661
-59,791,-660
-49,798,-656
-43,822,-647
-41,854,-636
-36,887,-617
-30,923,-601
-23,957,-583
-23,988,-563
-14,1013,-546
-4,1031,-530
9,1031,-517
23,1022,-508
40,1001,-500
53,970,-497
66,934,-492
75,891,-494
87,843,-495
100,809,-497
116,782,-501
125,758,-501
132,757,-498
143,763,-498
151,773,-490
151,789,-480
151,803,-469
152,815,-458
158,822,-448
161,821,-440
170,814,-429
177,801,-425
188,773,-428
198,736,-426
213,689,-423
228,644,-429
248,608,-432
271,579,-434
290,564,-442
309,548,-443
328,537,-444
346,532,-443
362,527,-445
371,530,-445
380,531,-449
383,527,-448
383,525,-452
385,520,-459
383,506,-472
378,487,-486
367,475,-506
361,476,-522
350,497,-546
340,520,-565
328,547,-589
330,589,-609
336,624,-634
339,665,-658
336,703,-685
335,738,-709
340,765,-729
347,784,-753
356,804,-775
378,818,-797
406,828,-823
439,834,-841
460,835,-859
485,833,-871
503,831,-879
521,826,-890
541,827,-894
565,823,-902
583,822,-905
600,818,-914
613,818,-914
630,821,-913
645,837,-912
658,856,-906
672,890,-892
680,935,-880
693,986,-859
701,1041,-829
714,1100,-797
723,1167,-769
728,1232,-746
732,1294,-715
725,1354,-693
718,1406,-677
711,1449,-664
700,1482,-662
688,1508,-659
668,1520,-665
650,1523,-678
630,1515,-693
614,1493,-713
594,1468,-737
577,1434,-761
563,1401,-784
550,1372,-812
544,1344,-830
540,1317,-853
539,1293,-866
532,1271,-877
520,1247,-885
509,1229,-887
493,1214,-887
472,1194,-877
439,1163,-868
408,1133,-848
378,1104,-835
358,1074,-828
356,1051,-821
362,1027,-823
403,1007,-843
485,1012,-885
644,1048,-969
865,1131,-1089
1073,1249,-1184
1217,1406,-1220
1308,1579,-1211
1356,1736,-1151
1333,1870,-1047
1250,1971,-909
1118,2029,-759
944,2048,-606
739,2019,-450
510,1948,-295
282,1847,-164
85,1703,-67
-46,1534,-7
-116,1357,19
-133,1197,40
-110,1048,51
-73,915,68
-33,794,92
-4,676,115
5,570,146
-7,466,171
-47,368,200
-109,275,237
-179,194,261
-253,125,287
-329,63,301
-400,-6,303
-458,-87,298
-492,-170,285
-512,-254,268
-519,-341,248
-514,-422,228
-498,-504,211
-477,-578,195
-448,-634,185
-417,-684,183
-394,-727,194
-373,-755,206
-356,-769,223
-350,-774,239
-348,-773,255
-350,-764,266
-349,-750,272
-351,-737,271
-353,-712,271
-359,-683,270
-375,-651,276
-399,-609,286
-428,-571,292
-463,-533,298
-501,-508,306
-548,-492,303
-597,-483,307
-650,-485,300
-705,-502,291
-769,-523,276
-822,-552,254
-856,-584,209
-874,-622,161
-890,-652,114
-904,-686,75
-924,-707,38
-946,-725,7
-963,-745,-23
-978,-773,-50
-993,-804,-78
-1005,-835,-96
-1020,-871,-113
-1032,-897,-122
-1053,-921,-126
-1074,-944,-120
-1098,-955,-109
-1122,-952,-95
-1148,-943,-72
-1179,-925,-49
-1214,-900,-23
-1248,-876,8
-1276,-857,39
-1297,-833,61
-1298,-815,83
-1285,-798,90
-1262,-783,102
-1243,-775,108
-1229,-776,122
-1214,-784,135
-1203,-804,148
-1199,-825,161
-1206,-856,173
-1213,-898,183
-1224,-939,195
-1240,-983,204
-1252,-1029,206
-1255,-1082,206
-1242,-1133,201
-1217,-1179,191
-1174,-1218,174
-1130,-1247,153
-1082,-1274,139
-1032,-1295,127
-982,-1320,119
-938,-1336,113
-884,-1359,116
-839,-1380,113
-787,-1400,119
-733,-1419,119
-677,-1436,122
-615,-1452,126
-552,-1466,129
-491,-1484,136
-436,-1499,145
-391,-1516,159
-358,-1526,182
-341,-1538,207
-338,-1544,238
-346,-1549,267
-360,-1551,298
-371,-1554,322
-377,-1551,337
-381,-1549,349
-376,-1539,363
-366,-1526,372
-353,-1511,379
-334,-1489,384
-317,-1462,392
-308,-1427,402
-305,-1388,417
-314,-1346,432
-336,-1303,448
-358,-1271,467
-383,-1241,480
-400,-1221,487
-410,-1211,492
-407,-1214,489
-400,-1220,482
-386,-1239,473
-370,-1268,465
-351,-1298,452
-336,-1325,450
-326,-1349,450
-328,-1366,455
-329,-1374,472
-340,-1378,489
-359,-1382,511
-384,-1385,530
-422,-1390,551
-466,-1404,561
-506,-1418,563
-545,-1437,549
-571,-1457,522
-587,-1470,490
-598,-1484,458
-607,-1494,422
-622,-1520,396
-650,-1572,374
-676,-1642,350
-657,-1712,299
-597,-1763,230
-503,-1828,154
-407,-1953,79
-353,-2187,30
-320,-2446,-18
-282,-2660,-67
-235,-2800,-109
-200,-2884,-143
-189,-2949,-156
-203,-3004,-156
-240,-3031,-137
-314,-3022,-115
-422,-2964,-83
-549,-2874,-54
-679,-2762,-30
-807,-2632,-10
-931,-2493,3
-1040,-2341,14
-1140,-2178,20
-1225,-2011,16
-1302,-1842,15
-1370,-1664,4
-1429,-1492,-14
-1477,-1325,-40
-1510,-1164,-75
-1512,-1009,-112
-1495,-866,-152
-1456,-734,-198
-1389,-617,-248
-1289,-515,-296
-1156,-435,-339
-1001,-360,-381
-836,-305,-411
-668,-256,-441
-497,-217,-458
-327,-183,-468
-158,-153,-473
-1,-123,-462
134,-100,-443
261,-73,-417
365,-50,-384
446,-26,-342
504,11,-288
541,65,-235
565,131,-176
579,208,-119
586,286,-61
589,366,1
581,439,64
567,510,121
537,579,184
493,647,239
441,699,291
372,746,345
300,784,397
223,815,438
143,835,475
66,844,509
-9,854,541
-87,853,569
-157,847,596
-227,837,617
-285,825,642
-334,818,662
-381,809,684
-409,806,700
-435,807,722
-445,812,739
-452,825,759
-453,841,779
-460,857,806
-466,876,836
-465,899,868
-460,921,905
-456,935,945
-449,960,988
-438,970,1029
-410,992,1064
-366,998,1100
-299,1005,1130
-206,1023,1156
-106,1042,1181
-9,1057,1211
92,1067,1243
191,1082,1281
294,1100,1317
384,1125,1358
478,1153,1398
573,1194,1440
658,1243,1481
738,1295,1517
811,1351,1548
876,1408,1571
935,1469,1584
992,1525,1589
1041,1570,1585
1086,1603,1568
1128,1628,1542
1167,1640,1507
1204,1643,1467
1237,1634,1422
1264,1623,1378
1289,1608,1333
1305,1593,1294
1313,1571,1254
1309,1552,1223
1285,1528,1197
1248,1499,1173
1195,1477,1149
1128,1468,1123
1052,1459,1089
971,1452,1053
889,1446,1009
802,1433,969
712,1413,927
621,1394,883
533,1368,841
449,1341,794
376,1299,751
307,1262,702
242,1220,656
193,1174,611
154,1123,566
122,1081,528
98,1036,490
79,1002,454
65,971,424
56,947,396
49,927,373
48,912,350
43,904,330
40,895,314
31,897,304
18,894,302
4,898,302
-13,890,304
-28,881,304
-38,874,302
-46,864,295
-53,848,286
-60,836,277
-57,820,264
-60,798,250
-61,794,234
-62,783,222
-62,770,208
-64,756,198
-63,755,187
-61,750,176
-57,755,174
-50,751,168
-47,750,171
-38,745,165
-30,735,165
-22,728,158
-12,712,160
-3,706,158
-4,698,158
-1,689,163
-5,684,166
-4,675,169
8,691,152
-34,705,150
-30,699,141
-37,696,142
-36,701,137
-29,709,134
-26,717,128
-16,725,124
-6,725,118
3,733,117
19,731,113
32,739,108
45,748,96
61,760,82
76,775,73
94,792,63
107,815,56
118,825,49
127,846,45
135,864,43
147,882,44
156,900,48
164,923,56
173,944,68
180,964,77
187,983,94
194,1004,113
192,1026,134
195,1045,157
183,1075,183
169,1095,212
150,1122,244
128,1145,276
108,1164,304
85,1174,332
69,1186,354
57,1190,366
46,1196,380
40,1204,392
37,1217,404
37,1230,409
40,1240,420
44,1248,426
51,1255,438
57,1250,450
63,1242,465
71,1224,473
77,1212,481
86,1203,482
98,1198,476
116,1201,466
133,1218,450
155,1234,430
181,1260,408
205,1279,384
215,1303,366
221,1324,351
213,1344,336
207,1360,319
206,1377,297
199,1391,277
199,1412,253
201,1438,230
199,1471,210
198,1498,192
203,1542,175
213,1589,154
222,1649,139
230,1740,125
236,1841,116
241,1946,103
237,2054,92
230,2163,83
205,2277,68
171,2391,52
128,2504,31
86,2614,5
41,2727,-28
3,2849,-72
-26,2977,-133
-40,3109,-199
-35,3246,-279
-26,3381,-365
-7,3505,-457
5,3607,-544
5,3683,-624
-5,3727,-697
-21,3738,-771
-30,3722,-860
-17,3702,-961
12,3721,-1086
67,3796,-1254
153,3925,-1439
255,4113,-1623
371,4362,-1786
492,4698,-1934
608,5097,-2057
702,5499,-2134
771,5874,-2151
779,6191,-2106
729,6438,-2001
641,6578,-1869
529,6588,-1718
418,6469,-1567
313,6253,-1429
205,5971,-1296
107,5645,-1174
29,5280,-1048
-21,4893,-929
-40,4517,-802
-28,4165,-673
11,3845,-536
68,3580,-388
148,3384,-236
236,3276,-89
324,3228,40
388,3211,142
422,3204,212
423,3195,259
389,3177,287
333,3132,310
275,3060,321
221,2963,331
162,2850,351
111,2733,377
73,2609,406
54,2492,434
57,2392,457
71,2323,470
88,2279,476
99,2268,467
116,2275,449
129,2288,424
133,2303,392
137,2302,359
139,2304,326
143,2299,301
143,2296,290
128,2286,288
106,2264,306
80,2236,321
52,2209,331
26,2176,338
2,2147,323
-16,2114,301
-33,2073,271
-40,2028,231
-40,1974,193
-29,1917,155
-16,1866,119
-6,1830,92
-2,1809,83
-14,1791,96
-41,1776,129
-69,1762,171
-83,1752,206
-86,1756,231
-75,1763,233
-52,1766,222
-27,1764,196
4,1747,165
37,1718,136
62,1677,104
84,1633,81
91,1590,62
91,1546,49
73,1501,40
49,1471,41
14,1447,42
-19,1431,44
-58,1411,45
-95,1387,46
-120,1352,33
-129,1309,14
-122,1263,-6
-115,1220,-29
-104,1178,-48
-91,1146,-69
-85,1108,-85
-77,1071,-102
-75,1045,-111
-81,1021,-121
-99,1003,-123
-121,988,-120
-144,968,-119
-156,945,-113
-170,926,-115
-183,902,-119
-188,880,-126
-192,856,-143
-197,833,-153
-203,809,-165
-209,783,-177
-219,758,-185
-227,746,-191
-235,734,-191
-238,732,-188
-240,728,-182
-243,722,-173
-250,723,-164
-260,716,-157
-272,711,-145
-287,705,-135
-310,686,-127
-330,662,-113
-344,629,-101
-351,593,-93
-355,559,-91
-355,520,-90
-344,488,-89
-336,454,-95
-323,423,-103
-299,390,-112
-275,364,-128
-250,342,-142
-227,321,-155
-203,299,-169
-186,282,-179
-174,263,-191
-168,251,-194
-168,231,-204
-169,214,-209
-171,194,-214
-164,175,-216
-153,133,-214
-128,62,-205
-93,-55,-179
-43,-222,-140
5,-403,-112
44,-534,-104
63,-595,-114
77,-600,-132
89,-576,-151
93,-534,-173
105,-473,-190
110,-417,-205
108,-363,-220
106,-315,-227
110,-269,-227
109,-230,-215
116,-195,-194
132,-176,-166
146,-169,-134
166,-171,-101
181,-186,-69
194,-206,-33
211,-229,-6
224,-253,16
236,-274,38
239,-295,55
238,-313,71
226,-325,80
214,-333,87
202,-334,89
198,-334,90
189,-334,78
187,-333,71
179,-337,60
161,-340,48
142,-343,30
115,-352,18
88,-353,4
62,-355,-9
39,-351,-27
28,-347,-40
10,-347,-52
-4,-350,-53
-16,-349,-55
-23,-349,-57
-23,-352,-60
-20,-355,-60
-26,-359,-62
-18,-360,-64
-11,-359,-67
-1,-350,-72
14,-341,-67
29,-328,-65
38,-314,-63
56,-297,-51
73,-283,-41
92,-265,-30
108,-243,-15
131,-230,2
152,-206,23
171,-179,43
194,-152,61
215,-124,76
237,-97,93
252,-63,109
266,-28,126
280,1,143
285,26,161
287,49,175
287,70,194
286,87,213
284,95,234
277,97,256
273,87,277
264,77,297
255,67,310
241,59,319
232,54,324
223,46,329
216,47,328
204,51,326
197,57,322
189,63,313
181,68,305
174,77,292
170,73,290
169,56,276
167,44,262
170,31,249
174,22,238
176,18,225
180,14,209
183,13,192
184,19,177
187,18,159
185,22,145
187,30,130
178,42,115
169,59,105
159,72,92
145,77,77
129,74,70
114,66,54
105,48,43
88,29,35
71,10,28
58,-8,16
43,-29,5
34,-42,-1
19,-50,-14
9,-52,-26
2,-45,-37
-3,-29,-54
-2,-14,-67
1,5,-81
5,18,-90
11,30,-91
14,37,-91
17,41,-82
22,37,-74
28,25,-64
33,16,-58
34,2,-52
41,-6,-52
44,-13,-56
47,-17,-54
50,-20,-51
51,-17,-49
42,-14,-45
36,-3,-47
23,7,-50
11,23,-54
-1,33,-66
-9,58,-72
-20,69,-76
-34,81,-88
-42,90,-97
-49,94,-108
-61,98,-118
-72,110,-122
-76,111,-135
-76,110,-147
-69,111,-160
-63,117,-174
-56,122,-187
-41,126,-194
-32,132,-207
-22,138,-218
-20,143,-221
-20,147,-222
-29,150,-218
-36,143,-215
-53,141,-208
-68,134,-199
-86,123,-189
-99,106,-179
-115,90,-168
-126,70,-162
-137,49,-152
-146,34,-139
-152,20,-132
-156,7,-125
-159,0,-119
-161,-7,-111
-160,-11,-104
-162,-11,-99
-158,-8,-88
-156,-5,-81
-153,-2,-71
-144,5,-62
-136,7,-56
-130,13,-49
-117,14,-40
-108,18,-31
-103,22,-23
-99,24,-11
-97,23,-2
-98,25,9
-101,22,19
-109,21,29
-115,23,41
-121,32,49
-124,37,55
-125,48,56
-129,56,56
-128,66,56
-127,75,52
-124,85,53
-120,92,44
-114,100,42
-107,106,40
-97,102,34
-91,101,33
-86,96,30
-78,89,33
-73,81,33
-68,76,37
-64,69,36
-58,66,40
-52,63,45
-47,64,38
-45,68,42
-38,73,41
-34,70,45
-28,74,44
-24,75,46
-19,70,50
-15,65,54
-9,56,58
-9,52,60
-9,43,64
-8,32,66
-4,26,70
-7,18,69
-11,10,65
-9,-4,63
-12,-14,63
-16,-25,63
-21,-32,60
-21,-33,59
-20,-33,56
-24,-24,57
-22,-6,52
-21,13,47
-11,35,49
-1,56,46
8,70,50
18,81,48
24,86,52
29,86,52
36,77,58
34,71,59
28,65,62
16,58,63
-2,56,62
-30,58,64
-60,68,67
-97,82,66
-136,92,66
-172,101,63
-201,106,65
-227,103,57
-248,96,53
-263,90,43
-268,86,33
-271,86,23
-266,87,14
-251,99,6
-238,114,0
-227,143,-2
-218,178,1
-212,203,5
-205,219,8
-201,221,17
-200,212,23
-203,199,25
-207,187,32
-213,172,32
-220,163,29
-225,155,18
-229,151,10
-235,142,-3
-234,134,-10
-235,121,-27
-235,102,-36
-231,79,-51
-230,59,-66
-225,40,-77
-220,24,-83
-214,18,-88
-210,22,-92
-202,31,-90
-194,39,-87
-187,49,-73
-177,59,-61
-161,68,-45
-139,81,-27
-116,82,-6
-91,81,11
-65,78,34
-50,73,51
-27,67,71
-13,68,86
-2,70,104
3,69,123
5,67,138
6,65,146
6,64,153
13,63,162
18,61,165
21,57,165
21,51,167
24,43,163
31,35,154
34,28,149
43,21,136
50,16,121
55,10,110
60,5,93
61,4,75
61,4,55
59,6,44
52,3,32
43,8,16
32,14,0
24,13,-13
13,18,-24
4,25,-34
-2,33,-42
-10,32,-45
-21,38,-44
-28,39,-45
-39,37,-44
-47,34,-42
-52,27,-45
-56,19,-42
-56,15,-47
-56,10,-52
-54,11,-63
-49,11,-67
-43,13,-75
-36,18,-81
-28,21,-85
-21,23,-90
-13,26,-94
-4,26,-98
3,21,-102
7,17,-104
11,15,-103
10,15,-104
5,8,-103
2,8,-101
-6,3,-102
-14,0,-101
-20,-4,-100
-29,-9,-106
-35,-12,-107
-39,-18,-112
-42,-16,-115
-41,-10,-122
-42,-11,-127
-34,-4,-128
-28,-1,-133
-21,4,-132
-20,10,-135
-20,8,-136
-13,6,-134
-15,8,-134
-20,4,-130
-28,2,-129
-41,4,-122
-49,6,-120
-54,11,-120
-62,18,-116
-66,26,-109
-70,30,-101
-76,30,-87
-77,23,-78
-80,18,-62
-83,17,-51
-83,15,-42
-74,13,-33
-63,13,-32
-53,12,-28
-47,6,-27
-40,7,-23
-38,5,-23
-36,8,-18
-34,13,-14
-39,17,-16
-37,17,-7
-42,21,-5
-39,17,2
-33,12,6
-29,6,13
-23,1,20
-18,-2,24
-6,-5,26
1,-13,28
9,-16,29
17,-17,29
23,-14,26
33,-11,21
38,-10,22
44,-6,17
42,-1,15
45,2,13
48,2,11
48,0,10
50,-3,10
45,-2,11
39,-11,11
26,-15,13
24,-22,21
18,-26,14
13,-29,14
8,-26,15
3,-28,17
1,-30,16
0,-29,15
3,-18,13
7,-15,10
15,-12,7
24,-10,7
22,-6,6
25,-9,11
26,-7,10
27,-14,15
26,-14,20
21,-20,18
23,-23,18
21,-24,20
21,-28,20
22,-29,18
21,-30,19
27,-26,16
27,-24,12
28,-21,13
28,-16,11
29,-10,9
30,-6,6
30,-5,4
27,-3,5
24,-4,1
23,0,0
19,-1,-1
16,-9,-8
10,-10,-8
6,-14,-13
1,-16,-12
-4,-17,-11
-10,-17,-17
-15,-17,-17
-20,-19,-17
-29,-22,-20
-34,-27,-16
-33,-30,-15
-39,-30,-15
-44,-29,-20
-46,-25,-20
-47,-23,-17
-48,-22,-22
-47,-21,-24
-44,-18,-22
-42,-14,-19
-44,-8,-18
-42,-5,-14
-42,1,-13
-40,5,-11
-40,7,-8
-37,8,-3
-34,10,0
-33,7,4
-28,-1,2
-26,0,1
-21,-5,6
-17,-4,5
-12,-2,2
-10,3,3
-10,9,4
-10,12,5
-6,16,4
-3,16,0
2,15,2
5,12,1
6,10,5
4,7,6
2,2,6
-8,-2,9
-17,-7,14
-20,-10,11
-13,-11,6
-6,-16,-1
2,-22,-9
13,-24,-13
13,-27,-16
16,-28,-18
12,-30,-18
6,-34,-16
-1,-35,-19
-9,-35,-23
-18,-35,-24
-25,-29,-27
-33,-24,-29
-35,-18,-24
-41,-12,-27
-43,-12,-23
-47,-9,-20
-49,-8,-19
-49,-5,-15
-44,-10,-15
-45,-11,-13
-37,-7,-14
-30,-10,-13
-26,-15,-11
-22,-16,-8
-12,-18,-7
-8,-17,-4
-6,-18,-1
4,-13,0
5,-12,2
9,-10,5
16,-6,7
21,-5,12
26,-10,15
28,-10,17
34,-10,18
35,-13,17
38,-14,18
39,-16,15
42,-17,17
44,-15,14
44,-13,12
40,-11,13
35,-8,8
31,-6,10
25,-3,8
20,0,5
9,-3,9
2,-4,3
-3,-2,3
-13,-6,1
-22,-8,-2
-28,-9,-5
-33,-9,-13
-43,-9,-14
-46,-11,-18
-48,-8,-24
-55,-9,-26
-56,-8,-31
-56,-10,-31
-57,-7,-30
-52,-8,-26
-54,-8,-19
-49,-6,-17
-49,-8,-12
-45,-9,-6
-41,-9,-2
-38,-11,6
-36,-8,7
-30,-12,8
-24,-11,9
-21,-9,11
-17,-10,13
-16,-10,11
-13,-3,9
-12,-1,10
-11,6,8
-8,10,14
-7,13,13
-3,16,13
-2,15,12
0,13,11
4,8,9
3,5,9
3,3,7
6,-4,8
8,-10,7
9,-15,6
4,-15,2
0,-10,0
-5,-10,0
-10,-8,-1
-11,-6,-5
-20,-5,-7
-25,1,-6
-30,-3,-5
-34,-7,-6
-30,-11,-2
-34,-14,3
-34,-13,6
-26,-11,7
-11,-6,6
3,-1,0
16,5,-1
25,13,-1
33,14,-2
35,18,-1
35,18,-2
33,14,-1
29,13,-2
25,6,-2
20,0,0
12,0,-5
6,0,-8
0,2,-13
-2,3,-13
-12,9,-15
-14,12,-15
-16,16,-18
-16,14,-19
-18,18,-19
-19,16,-22
-21,12,-22
-23,13,-22
-27,9,-22
-32,5,-25
-32,6,-28
-36,6,-29
-39,9,-29
-41,9,-33
-42,10,-28
-41,9,-29
-42,5,-23
-37,7,-20
-35,4,-22
-32,0,-20
-23,-1,-19
-14,-8,-22
-11,-12,-20
-6,-15,-23
-2,-17,-20
2,-15,-23
10,-12,-26
15,-8,-28
21,0,-29
24,5,-25
26,7,-25
26,10,-26
28,13,-33
27,13,-37
22,16,-40
15,14,-39
3,11,-45
-11,10,-48
-26,6,-47
-45,0,-49
-63,-7,-46
-83,-11,-50
-93,-15,-50
-102,-22,-49
-107,-31,-50
-110,-34,-49
-110,-40,-46
-107,-43,-47
-98,-45,-48
-94,-43,-52
-90,-45,-57
-82,-50,-56
-79,-52,-62
-77,-60,-63
-76,-69,-66
-81,-80,-70
-94,-91,-73
-108,-104,-76
-126,-115,-79
-140,-128,-82
-164,-141,-85
-186,-154,-87
-207,-168,-86
-228,-182,-89
-248,-201,-87
-271,-212,-86
-288,-226,-82
-302,-250,-78
-320,-274,-77
-337,-305,-67
-354,-337,-60
-366,-370,-54
-377,-405,-45
-382,-443,-36
-382,-479,-26
-381,-513,-19
-377,-549,-12
-372,-574,-5
-368,-604,3
-373,-635,8
-373,-665,15
-375,-688,20
-372,-708,14
-370,-730,13
-361,-745,7
-347,-757,-1
-327,-771,-12
-311,-789,-19
-291,-818,-29
-285,-843,-36
-278,-871,-36
-277,-898,-36
-289,-920,-33
-300,-945,-31
-313,-959,-29
-321,-969,-27
-327,-976,-25
-330,-979,-27
-330,-969,-28
-326,-959,-34
-321,-951,-34
-312,-943,-40
-302,-933,-44
-295,-921,-53
-291,-909,-55
-290,-899,-58
-295,-894,-61
-299,-888,-66
-311,-882,-71
-322,-873,-74
-335,-861,-81
-345,-856,-85
-359,-852,-90
-380,-842,-89
-405,-837,-95
-421,-828,-100
-436,-822,-108
-446,-813,-121
-452,-807,-131
-457,-798,-147
-460,-793,-158
-461,-788,-171
-464,-784,-178
-461,-779,-188
-462,-777,-193
-465,-780,-199
-470,-780,-199
-471,-786,-202
-473,-792,-206
-471,-800,-203
-470,-807,-199
-472,-811,-195
-471,-815,-192
-473,-811,-188
-474,-808,-185
-477,-801,-179
-479,-791,-175
-476,-784,-170
-485,-773,-162
-493,-769,-157
-508,-763,-150
-523,-760,-149
-540,-753,-148
-555,-740,-147
-567,-733,-151
-581,-722,-154
-595,-712,-158
-605,-697,-162
-611,-684,-169
-609,-670,-176
-610,-652,-186
-607,-633,-189
-603,-613,-194
-601,-591,-197
-596,-574,-200
-588,-554,-195
-583,-532,-195
-575,-513,-193
-571,-498,-189
-565,-483,-183
-560,-467,-176
-557,-455,-167
-558,-441,-158
-555,-427,-151
-555,-410,-145
-551,-396,-138
-552,-380,-133
-555,-366,-129
-561,-350,-127
-563,-340,-125
-566,-327,-121
-568,-316,-119
-573,-302,-120
-577,-295,-121
-577,-289,-123
-577,-280,-131
-577,-270,-131
-576,-264,-135
-575,-254,-138
-574,-245,-139
-576,-230,-139
-575,-217,-142
-573,-200,-144
-575,-180,-150
-577,-162,-150
-586,-145,-150
-588,-134,-148
-595,-124,-145
-602,-121,-145
-606,-121,-144
-609,-120,-149
-603,-116,-154
-594,-116,-156
-581,-113,-163
-564,-112,-171
-551,-109,-173
-541,-110,-177
-537,-107,-177
-540,-100,-176
-544,-91,-171
-546,-84,-168
-551,-82,-161
-556,-77,-157
-563,-75,-148
-564,-70,-147
-564,-70,-146
-563,-67,-143
-560,-69,-145
-559,-68,-143
-557,-70,-138
-559,-69,-138
-555,-69,-134
-557,-63,-138
-556,-57,-131
-560,-46,-133
-562,-37,-132
-561,-29,-134
-561,-21,-133
-564,-12,-136
-564,-6,-147
-560,-8,-147
-549,-9,-156
-544,-8,-166
-535,-10,-170
-525,-12,-176
-516,-13,-179
-502,-18,-184
-493,-18,-182
-482,-22,-182
-475,-20,-180
-463,-22,-174
-455,-25,-169
-446,-22,-163
-438,-21,-155
-426,-18,-148
-415,-18,-143
-398,-13,-140
-387,-7,-136
-372,-3,-128
-356,-5,-127
-341,-3,-121
-329,-2,-119
-315,-2,-118
-301,2,-117
-289,2,-111
-276,3,-109
-267,5,-105
-258,6,-102
-251,9,-100
-244,13,-100
-233,12,-95
-226,14,-97
-217,17,-93
-208,21,-95
-205,24,-93
-201,29,-89
-199,30,-90
-199,34,-87
-200,32,-87
-200,38,-81
-201,40,-78
-200,45,-77
-196,47,-75
-191,47,-75
-181,43,-76
-172,47,-77
-160,43,-79
-149,43,-78
-139,43,-80
-132,41,-77
-125,44,-77
-118,44,-71
-111,46,-69
-104,50,-65
-98,48,-61
-96,51,-60
-86,56,-59
-80,60,-51
-75,63,-49
-67,66,-48
-58,68,-48
-49,65,-50
-35,66,-45
-26,65,-48
-22,64,-47
-13,59,-47
-9,55,-43
-8,49,-44
-2,48,-46
4,47,-43
6,49,-42
7,58,-41
3,69,-35
1,74,-25
-7,81,-15
-14,84,-10
-17,82,-3
-10,80,-3
-1,83,-7
14,85,-18
33,82,-27
53,79,-31
68,72,-37
81,67,-40
89,61,-45
92,56,-41
90,52,-39
88,51,-33
80,44,-27
73,39,-20
65,27,-10
61,20,-3
58,10,4
58,2,5
60,-3,10
63,-8,13
67,-9,14
72,-9,15
75,-6,16
83,0,18
84,5,17
88,13,16
92,23,17
98,28,18
106,36,17
112,42,13
120,49,17
126,51,17
127,54,16
129,51,18
129,47,16
128,38,14
127,32,12
126,22,13
121,12,14
122,3,10
120,-6,12
120,-9,9
121,-11,7
120,-13,6
120,-14,7
120,-11,7
124,-9,11
124,-2,10
129,3,11
126,10,17
123,15,22
123,23,29
117,27,32
115,36,31
111,41,37
108,42,40
102,40,40
96,38,44
90,38,45
87,35,40
81,33,40
80,27,42
79,26,37
77,21,32
82,19,31
85,13,28
86,8,28
83,5,20
79,0,22
81,-3,24
77,-6,25
74,-9,30
68,-10,33
61,-10,35
57,-11,37
49,-14,41
45,-11,44
44,-10,49
42,-6,52
47,-3,54
50,-5,52
56,-1,50
66,-3,54
75,0,53
80,0,55
91,-3,56
98,0,55
104,0,50
110,-1,52
115,1,48
115,1,47
116,5,46
115,7,50
115,13,52
116,19,48
119,24,49
124,30,51
132,38,49
142,50,48
149,61,49
154,68,56
160,72,62
161,78,64
166,83,70
169,86,75
173,80,78
180,88,76
191,86,75
198,86,76
203,87,76
210,86,76
215,92,74
213,88,78
208,90,79
200,100,84
195,96,88
185,100,92
175,105,95
170,104,95
163,106,99
161,102,99
159,106,101
165,110,101
171,110,105
174,118,105
182,114,106
194,118,110
208,127,112
225,128,116
241,143,118
261,141,127
282,150,131
303,171,138
323,171,150
342,190,159
362,196,166
384,209,181
403,231,185
421,235,196
434,256,202
453,264,207
470,274,213
492,291,210
510,294,209
530,311,210
550,310,209
576,329,207
605,328,205
639,327,198
670,328,196
705,321,189
738,316,186
771,300,186
798,294,183
824,275,185
846,268,189
863,254,196
877,248,203
879,236,216
880,228,224
876,226,236
867,222,246
860,226,256
852,228,266
841,229,268
831,238,273
827,244,278
825,249,275
823,257,273
828,269,259
830,273,253
839,279,247
843,280,238
853,280,226
863,276,219
873,271,210
883,264,202
890,256,198
894,249,197
895,237,195
896,225,197
892,219,196
888,210,196
879,204,197
877,201,196
867,199,197
860,196,194
850,193,198
842,190,197
835,194,190
829,197,183
828,200,178
834,205,164
843,206,152
852,215,137
859,212,125
863,207,115
864,197,107
862,187,99
861,174,93
857,159,86
850,141,84
838,130,81
822,120,85
800,109,88
775,102,98
744,101,104
714,102,117
685,110,127
660,120,132
637,127,135
621,140,136
609,146,139
600,149,138
601,148,139
605,153,131
613,145,126
621,144,120
624,142,120
633,138,121
636,135,123
633,136,127
627,137,129
621,143,132
606,147,136
584,152,139
561,152,144
533,156,150
505,156,153
477,159,154
448,164,149
424,165,143
403,165,130
391,164,121
383,162,111
380,162,100
382,160,83
383,159,75
393,158,60
403,158,51
407,173,34
411,178,23
414,184,17
416,181,12
416,173,10
408,164,8
395,161,6
380,150,9
363,137,10
344,133,16
323,122,18
304,114,20
283,107,27
265,108,28
248,107,31
235,108,33
222,117,32
214,123,34
203,134,35
193,144,33
182,159,31
173,168,35
165,175,34
156,186,37
146,191,42
134,197,42
123,202,48
110,205,47
104,203,48
94,201,49
86,196,48
82,188,44
79,172,38
72,155,31
67,132,34
59,115,35
57,99,41
51,87,45
50,83,47
46,79,48
51,77,48
53,76,43
54,75,36
59,83,28
65,86,21
66,92,13
70,97,7
69,103,0
68,106,-3
66,111,-7
58,104,-11
53,60,-11
44,35,-14
24,9,-6
4,-24,9
-7,-48,17
-17,-64,24
-25,-80,27
-35,-88,32
-39,-77,27
-48,-69,27
-50,-51,23
-51,-25,19
-51,-11,17
-50,16,19
-46,41,19
-40,60,22
-34,82,26
-27,95,30
-25,109,29
-23,116,32
-18,120,33
-19,123,30
-19,123,34
-23,117,33
-28,109,28
-32,98,24
-29,84,23
-24,67,21
-16,56,17
-8,50,10
-2,43,0
9,39,-6
18,30,-18
24,29,-24
29,29,-31
32,20,-33
27,22,-37
24,17,-36
22,6,-33
19,-3,-35
16,-7,-34
12,-10,-34
15,-9,-32
16,-13,-27
20,-17,-26
22,-17,-23
24,-18,-20
27,-20,-17
32,-25,-21
37,-29,-22
36,-33,-28
32,-38,-29
29,-41,-32
23,-48,-32
17,-54,-35
8,-60,-37
-2,-66,-42
-9,-78,-37
-10,-91,-37
-16,-106,-38
-18,-112,-34
-20,-118,-33
-20,-129,-32
-18,-131,-27
-15,-117,-18
-8,-107,-12
2,-92,-8
11,-70,-3
24,-62,0
33,-42,4
43,-42,10
52,-34,15
60,-37,16
67,-38,21
68,-39,23
74,-43,25
78,-45,22
79,-49,23
82,-46,21
85,-46,17
90,-36,12
98,-28,9
97,-21,7
107,-11,9
110,0,8
108,17,9
111,21,13
111,32,17
111,36,22
108,33,23
106,36,30
104,31,33
107,20,38
102,12,38
105,4,45
109,0,45
107,-1,46
111,-1,48
116,1,47
117,4,46
120,8,45
118,14,38
116,13,35
111,18,27
112,22,24
107,28,16
102,30,10
96,30,7
97,28,4
95,27,-1
96,22,0
97,22,-3
101,17,-4
105,15,-8
111,18,-12
119,17,-10
126,15,-11
130,16,-14
139,13,-20
142,16,-21
151,7,-24
153,0,-30
158,-4,-34
157,-9,-37
159,-19,-46
156,-24,-47
152,-31,-52
145,-33,-59
140,-35,-66
128,-34,-70
118,-31,-69
102,-26,-73
92,-18,-77
82,-14,-77
69,-4,-74
58,4,-72
53,16,-74
49,29,-75
47,36,-74
49,46,-78
50,54,-75
49,54,-78
48,56,-81
45,50,-82
40,47,-87
32,37,-91
21,32,-96
10,23,-94
-4,21,-95
-17,15,-93
-31,14,-88
-49,12,-82
-62,12,-75
-72,12,-64
-77,8,-59
-84,6,-53
-83,-1,-50
-81,-3,-44
-77,-9,-42
-71,-16,-40
-61,-21,-36
-54,-26,-32
-45,-28,-26
-39,-35,-22
-31,-38,-21
-26,-41,-14
-19,-39,-12
-16,-37,-7
-8,-33,-6
-5,-29,-4
0,-26,0
12,-26,1
22,-21,5
33,-20,9
41,-21,12
50,-23,15
61,-25,20
69,-22,23
79,-21,23
92,-20,21
102,-20,21
113,-15,20
120,-14,16
122,-13,11
127,-7,11
129,-7,8
126,-3,6
120,0,2
111,5,3
103,11,1
92,13,4
77,17,7
62,19,13
47,23,20
26,24,27
8,25,39
-8,21,53
-22,18,61
-35,15,71
-43,12,79
-43,7,84
-46,8,93
-40,2,95
-33,2,96
-29,1,97
-18,0,96
-8,-2,93
5,3,90
12,-2,86
21,-9,79
36,-16,75
41,-26,72
42,-29,69
38,-35,72
29,-36,72
15,-39,73
0,-33,79
-18,-27,84
-39,-25,86
-57,-21,90
-74,-18,91
-85,-15,94
-101,-17,92
-114,-15,93
-130,-14,96
-136,-11,100
-143,-6,103
-145,-5,106
-148,2,111
-144,3,120
-136,4,123
-125,4,121
-108,7,120
-82,4,115
-59,7,109
-28,9,101
-3,14,97
24,13,88
46,15,80
65,19,74
83,24,66
92,28,55
94,32,50
89,34,44
79,37,33
65,39,25
45,36,18
23,36,14
5,38,13
-2,41,7
0,42,-3
7,45,-14
18,45,-21
34,41,-28
44,44,-34
58,41,-37
66,36,-37
74,36,-37
74,32,-39
66,26,-43
61,21,-42
46,18,-44
29,14,-44
12,11,-42
-9,8,-42
-24,6,-42
-42,8,-37
-55,11,-34
-73,12,-34
-80,17,-35
-87,18,-32
-91,15,-32
-92,21,-34
-90,18,-32
-86,18,-34
-75,14,-32
-67,15,-35
-59,13,-33
-49,10,-31
-42,8,-34
-36,6,-34
-31,5,-35
-26,0,-37
-27,-2,-38
-29,-6,-38
-28,-7,-41
-31,-8,-40
-28,-6,-43
-29,-7,-42
-29,-5,-42
-30,-8,-39
-33,-2,-38
-32,-5,-40
-37,-4,-40
-42,-1,-43
-43,-3,-34
-44,-5,-31
-48,-4,-30
-47,-2,-28
-46,-3,-24
-40,-4,-19
-40,-5,-21
-37,-5,-15
-32,-3,-10
-32,1,-6
-29,0,-2
-26,3,1
-23,6,0
-20,7,3
-15,11,4
-11,10,2
-6,13,1
-1,10,2
5,4,2
10,1,2
12,-4,3
16,-6,5
22,-13,1
29,-17,1
30,-18,1
35,-20,2
38,-23,5
39,-19,3
41,-15,6
43,-16,14
43,-14,21
44,-17,24
47,-15,32
44,-17,47
47,-19,50
50,-19,50
52,-19,45
47,-18,37
48,-19,27
41,-16,9
34,-16,-1
28,-16,-17
19,-14,-32
11,-14,-44
2,-16,-51
-1,-21,-51
-3,-27,-52
-4,-35,-50
-5,-38,-46
-9,-41,-38
-11,-41,-33
-10,-44,-29
-8,-39,-25
-7,-40,-23
-15,-30,-19
-24,-25,-19
-33,-22,-16
-48,-11,-16
-64,-5,-10
-77,0,-11
-87,8,-9
-88,15,-9
-82,22,-13
-71,25,-16
-59,28,-15
-48,25,-16
-34,24,-14
-26,20,-13
-12,10,-10
-8,6,-12
0,-1,-10
-2,-8,-6
-5,-14,-2
-7,-23,0
-13,-25,2
-19,-30,7
-24,-30,15
-31,-30,18
-38,-29,22
-38,-30,27
-38,-30,33
-39,-30,37
-38,-32,39
-36,-31,43
-34,-30,48
-31,-31,52
-24,-31,54
-17,-28,56
-10,-32,53
-2,-31,50
6,-30,51
15,-32,50
21,-31,47
25,-32,45
32,-33,42
32,-34,40
34,-32,40
36,-29,39
35,-29,37
37,-23,35
39,-25,31
40,-23,27
42,-18,24
43,-15,22
48,-13,20
47,-9,18
49,-8,14
50,-6,16
50,-5,13
51,-1,11
51,-4,10
48,-5,6
46,-7,7
42,-11,4
42,-12,4
36,-13,4
30,-16,6
22,-15,2
19,-15,2
12,-12,2
2,-6,0
-3,-6,6
-9,-3,6
-16,-2,4
-22,3,2
-28,4,3
-31,6,0
-33,4,2
-38,4,0
-41,5,-1
-40,1,-2
-39,2,-1
-43,1,-4
-40,3,-4
-41,1,-3
-39,0,-6
-39,0,-5
-33,-2,-1
-31,-5,2
-27,-9,1
-24,-6,5
-22,-10,7
-19,-11,4
-17,-11,7
-13,-12,7
-12,-10,8
-9,-10,4
-8,-8,7
-7,-8,2
0,-7,3
0,-7,3
6,-8,5
10,-3,1
8,-5,-1
8,-6,1
4,-8,0
4,-10,-1
4,-9,0
-3,-8,2
-7,-5,1
-8,0,1
-5,4,3
1,7,0
10,9,4
23,11,3
29,11,2
39,12,0
45,12,-1
44,12,-3
45,11,-3
49,10,-4
44,10,-6
40,3,-7
32,5,-13
26,0,-10
19,2,-7
8,0,-2
2,0,2
-2,-4,11
-2,-7,14
-8,-11,18
-8,-15,19
-8,-16,18
-9,-13,18
-12,-16,14
-9,-15,15
-14,-13,13
-13,-8,13
-13,-5,5
-15,0,3
-13,3,0
-14,8,-5
-17,4,-4
-18,6,-11
-20,4,-10
-18,0,-10
-18,-2,-7
-19,-1,-9
-16,-7,-2
-16,-5,-6
-11,-9,-6
-8,-9,-4
-3,-8,-6
1,-9,-8
5,-8,-8
8,-8,-12
12,-13,-12
16,-13,-11
16,-17,-11
22,-17,-10
21,-16,-10
24,-15,-9
22,-13,-12
19,-10,-16
18,-13,-14
16,-12,-15
10,-11,-13
8,-10,-16
4,-10,-15
0,-11,-12
-2,-9,-14
-5,-8,-13
-7,-9,-10
-10,-6,-9
-11,-6,-6
-14,-5,-8
-14,-6,-7
-18,-3,-6
-17,-4,-4
-20,-3,-6
-18,-4,-1
-19,-3,-2
-13,-3,-1
-12,-1,1
-8,-4,-2
-1,-4,0
2,-5,-3
8,-3,-4
12,-5,-4
13,-4,-3
15,-5,-4
14,-4,-5
15,-4,-4
15,-5,-2
8,-7,-4
4,-2,1
3,-6,2
1,-7,0
1,-8,3
2,-9,-2
8,-6,1
16,-9,-1
21,-4,-1
23,-4,-2
19,-5,-2
15,-4,-5
13,-9,0
10,-10,-1
1,-9,3
-6,-6,3
-14,-2,1
-8,0,2
0,7,-4
9,5,-4
17,5,-10
24,2,-8
29,3,-7
34,-4,-5
34,-5,-3
34,-7,-7
31,-13,-3
31,-15,-2
26,-20,-1
23,-19,2
17,-17,2
13,-15,5
7,-9,7
1,-3,8
-5,-2,12
-7,0,8
-13,7,12
-18,8,12
-20,9,12
-24,11,13
-30,10,12
-32,10,11
-32,0,4
-27,0,5
-24,-5,5
-20,-7,4
-15,-12,2
-14,-13,0
-9,-18,3
-10,-18,2
-3,-22,5
-7,-19,5
-7,-23,5
-11,-24,3
-11,-22,5
-13,-20,4
-8,-22,5
-6,-20,0
0,-17,0
6,-18,-4
8,-16,-1
8,-15,-4
14,-14,-5
14,-15,-6
16,-14,-5
20,-13,-6
21,-10,-7
17,-10,-7
13,-10,-2
10,-7,-3
6,-11,-2
7,-10,1
5,-8,2
2,-8,4
2,-7,5
0,-7,5
1,-6,6
2,-5,2
3,-4,7
5,-1,4
4,-1,3
4,1,1
5,4,2
5,6,0
5,5,0
4,3,1
4,1,-1
3,0,1
1,-4,-1
0,-3,2
0,-8,1
3,-7,0
0,-6,0
-1,-7,-1
-1,-6,-1
0,-7,1
-3,-8,3
-3,-8,2
-7,-7,2
-10,-6,0
-11,-8,1
-9,-8,3
-8,-11,1
-8,-13,3
-8,-16,6
-2,-17,9
0,-13,6
6,-15,2
11,-13,3
18,-13,0
22,-9,0
21,-7,-5
19,-7,-3
9,-4,-9
3,-6,-4
-7,-8,-4
-20,-9,0
-23,-5,1
-20,-2,0
-10,1,-4
0,1,-4
15,2,-8
27,0,-4
33,1,-2
38,0,-1
41,-3,0
42,-5,0
37,-9,0
30,-11,3
22,-9,3
15,-14,6
6,-5,6
-5,-6,6
-15,-3,5
-24,0,5
-27,2,7
-35,4,6
-40,7,7
-43,13,7
-44,10,7
-44,6,9
-44,6,4
-36,2,6
-27,-4,3
-18,-4,0
-12,-8,2
-7,-13,0
1,-17,0
4,-21,-2
7,-27,-5
8,-26,-1
8,-29,2
6,-31,1
1,-28,2
-1,-27,2
0,-24,2
0,-22,4
6,-20,3
8,-17,0
14,-18,-2
19,-18,-5
19,-18,-3
22,-17,-2
23,-15,-1
25,-14,-2
29,-17,0
27,-16,0
27,-15,-1
23,-17,1
22,-14,5
21,-12,1
15,-9,0
14,-5,3
10,-4,3
8,-2,0
3,0,2
3,0,0
0,3,0
-3,4,1
-3,9,-1
-4,9,0
-3,7,1
-4,7,-1
0,5,0
0,5,-5
0,0,-2
3,0,-3
0,0,-5
1,-1,-3
2,-5,-5
0,-6,-1
-1,-6,0
-5,-10,-2
-6,-10,0
-7,-8,3
-9,-7,1
-12,-6,1
-12,-9,3
-12,-4,-1
-10,-4,0
-12,-1,-1
-6,0,0
-3,-3,0
-2,-1,0
0,-1,-4
3,-5,-3
7,-7,-4
11,-9,-4
16,-7,-8
19,-4,-11
21,-2,-12
16,-2,-9
5,2,-7
0,1,-5
-11,-1,-3
-26,0,4
-36,3,3
-36,0,0
-29,1,-5
-17,4,-8
-5,0,-5
1,-2,-10
12,-4,-6
16,-5,-5
19,-4,-4
21,-2,-2
19,-2,-4
17,-2,-1
9,-3,0
5,-4,2
0,-3,0
-10,-1,4
-15,2,5
-19,4,5
-27,10,7
-32,14,5
-32,16,6
-32,16,5
-30,16,6
-26,12,8
-25,12,5
-18,5,4
-14,5,5
-10,-4,2
-2,-8,4
3,-13,1
6,-17,-1
8,-19,0
5,-18,0
6,-20,-1
1,-19,-3
1,-19,-2
-3,-26,-2
-9,-23,-4
-9,-18,-2
-10,-16,-2
-7,-14,-5
-2,-13,-7
0,-12,-6
4,-10,-6
8,-12,-4
10,-14,-4
12,-14,-3
9,-14,-2
14,-17,-1
11,-16,0
10,-14,-1
7,-13,-2
5,-12,-2
4,-10,-1
0,-5,-2
1,-2,-1
-5,1,-2
-5,0,-4
-7,4,-3
-7,4,-4
-5,6,-5
-5,5,-2
2,7,-3
0,3,-5
3,1,0
3,0,-2
6,-2,-4
11,-5,1
10,-5,0
11,-6,3
10,-6,1
10,-7,2
8,-3,0
4,-4,2
6,0,1
4,0,3
1,0,0
0,-1,4
-5,0,3
-7,0,5
-9,-1,2
-9,-2,2
-10,-4,1
-6,-5,4
-6,-3,3
-4,-4,4
-2,-8,3
1,-6,2
4,-8,3
10,-12,4
19,-14,3
28,-12,3
30,-11,1
29,-8,5
20,-9,6
8,-10,6
-1,-6,11
-10,-2,13
-26,0,17
-35,4,16
-28,6,11
-18,8,5
-9,10,6
-1,6,-1
8,6,1
16,4,0
21,2,0
28,-3,1
33,-3,3
33,-9,6
27,-11,9
25,-18,11
19,-20,12
11,-19,14
2,-20,16
-3,-20,18
-9,-17,18
-18,-14,20
-22,-11,18
-26,-9,17
-26,-3,15
-24,-1,15
-26,4,14
-22,5,11
-18,10,8
-10,9,7
-4,9,3
0,8,2
6,4,0
12,2,-1
11,0,-2
12,-3,-3
9,-8,-2
3,-11,0
1,-15,-1
-7,-16,0
-12,-19,0
-16,-16,4
-19,-15,3
-17,-13,3
-15,-15,3
-10,-9,3
-8,-4,0
-3,0,-1
1,4,-2
5,2,-2
12,5,-6
15,2,-4
12,3,-7
15,0,-1
14,0,-1
13,-3,-1
8,-4,1
4,-5,-3
0,-4,1
-1,-5,4
-5,-3,6
-5,-1,3
-8,1,4
-10,0,6
-11,2,7
-9,3,5
-7,3,7
-2,4,3
-2,3,3
1,2,3
3,1,0
6,3,2
9,3,0
13,5,2
14,6,-1
16,3,-3
18,3,2
20,0,3
20,0,2
15,-3,3
15,-2,5
12,-4,6
8,-3,7
5,-4,8
2,-2,5
0,-3,5
-3,0,4
-3,0,1
-5,3,7
-5,1,1
-7,0,0
-9,-1,-1
-4,-6,-3
-2,-8,-4
0,-8,-9
6,-4,-9
8,-5,-9
0,-7,-5
0,-4,-3
-7,-6,-5
-7,-8,0
-18,0,0
-26,0,7
-29,5,4
-24,5,3
-16,8,0
-3,9,-2
0,9,-4
9,7,-4
10,5,-5
15,2,-6
12,0,-7
12,-2,-4
10,-2,-4
6,-4,-7
4,-6,-4
1,-5,-6
-3,-6,-1
-3,-6,0
-4,-1,1
-8,0,4
-12,2,4
-12,0,8
-14,3,7
-20,4,7
-18,2,12
-22,3,8
-22,1,8
-26,3,9
-28,1,10
-26,0,9
-31,-2,10
-25,-4,7
-20,-5,8
-17,-6,5
-14,-7,3
-10,-11,2
-7,-12,1
-5,-13,1
-1,-15,3
0,-13,2
0,-15,0
3,-14,2
7,-12,-1
7,-11,-2
11,-10,-1
14,-6,-4
15,-6,-4
15,-5,-6
15,-4,-10
14,-4,-11
9,-4,-12
9,-6,-14
6,-3,-15
4,-5,-16
3,-4,-18
0,-8,-15
0,-5,-15
-2,-4,-10
-5,-6,-8
-6,-4,-9
-7,-4,-5
-8,-5,-3
-7,-3,-3
-10,1,-2
-10,-1,-4
-11,2,-2
-6,0,0
-7,1,-3
-10,2,-5
-11,2,-5
-11,3,-3
-11,3,-4
-13,1,-5
-13,2,-5
-15,4,-3
-14,5,-5
-11,3,-3
-8,2,-3
-10,1,-3
-4,1,-1
-6,-2,0
-5,-2,1
-3,-1,1
-2,-5,1
-1,-7,2
-2,-5,5
0,-6,5
-1,-6,8
1,-6,10
2,-2,7
4,-5,6
4,-6,7
4,-7,2
6,-9,-1
7,-8,2
10,-9,-1
14,-6,-3
13,-4,-6
16,-8,-4
11,-4,-4
9,-3,0
5,-7,0
2,-6,4
-7,-4,6
-11,0,11
-18,3,11
-14,7,8
-10,9,8
-3,12,3
4,11,0
13,11,0
24,14,-4
30,12,-7
36,9,-9
36,8,-9
35,1,-8
30,0,-9
26,-2,-6
15,-5,-3
7,-7,-1
5,-6,2
-4,-6,4
-7,-5,6
-18,-5,8
-19,-2,12
-22,-1,14
-22,-1,18
-23,-2,17
-22,0,18
-20,-3,18
-20,1,14
-17,-3,13
-18,-3,12
-15,-4,11
-13,-3,11
-8,-5,6
-9,-6,7
-13,-5,2
-12,-8,5
-11,-6,-1
-14,-8,2
-12,-8,3
-15,-7,6
-16,-7,6
-15,-6,4
-11,-2,8
-10,-3,2
-7,0,1
-3,0,0
-1,0,1
3,-1,-2
5,-4,-5
7,-5,-5
8,-4,-8
15,-8,-12
12,-13,-7
10,-13,-12
5,-13,-8
6,-15,-11
2,-13,-8
2,-11,-4
-1,-13,-4
-2,-9,-2
-4,-10,0
-5,-6,1
-8,-4,2
-6,-1,1
-6,0,4
-4,1,3
-1,3,4
-4,5,0
-1,4,1
-3,5,2
0,6,1
0,6,2
1,5,4
0,4,0
1,4,4
1,5,6
1,3,5
4,1,7
2,2,8
6,0,11
3,4,7
4,0,9
4,0,4
5,3,6
6,2,7
5,0,6
5,1,7
6,2,6
4,0,9
4,0,8
1,1,3
5,-1,8
6,-1,6
0,-4,3
6,-6,3
5,-7,0
7,-6,-4
5,-9,-2
6,-10,-3
11,-13,0
11,-8,-5
11,-7,-3
10,-7,-3
0,-5,0
-5,-5,1
-10,-6,3
-16,-6,2
-21,0,3
-27,2,4
-29,4,6
-25,10,7
-19,10,0
-7,14,0
2,11,-4
11,10,-8
21,10,-8
28,6,-9
31,2,-11
32,-2,-12
28,-6,-7
23,-6,-4
17,-10,-2
8,-8,0
1,-7,6
-4,-9,6
-10,-6,12
-16,-1,13
-18,-2,14
-18,0,18
-21,4,16
-17,4,17
-15,3,15
-12,2,12
-10,0,11
-9,1,6
-3,-1,7
-3,-3,1
-1,-3,-2
1,-5,-1
3,-3,-4
1,-4,-9
1,-4,-4
0,-5,-4
-1,-2,-5
-1,-8,-5
-4,-7,-2
-7,-6,0
-7,-6,1
-7,-7,1
-10,-6,1
-6,-6,1
-1,-7,0
-2,-5,-3
4,-7,-1
10,-11,-5
14,-8,-8
15,-11,-13
17,-16,-12
20,-18,-14
25,-22,-13
24,-20,-13
24,-23,-10
24,-23,-11
23,-21,-11
23,-26,-6
20,-23,-4
15,-21,0
13,-21,4
11,-18,6
8,-14,6
8,-14,8
5,-8,9
5,-5,10
5,-1,8
2,-1,5
5,-2,6
7,0,2
6,1,4
7,2,0
9,0,0
8,-2,-3
10,-2,1
9,-5,1
7,-4,0
7,-3,0
4,-2,5
3,-3,1
5,-4,6
2,-5,6
0,-5,6
-1,-7,2
-3,-5,4
-3,-5,1
-4,-4,1
-4,-3,1
-5,-4,1
-4,-5,2
-6,-9,3
-6,-8,-2
-5,-11,5
-8,-13,1
-7,-12,3
-7,-13,4
-8,-13,-2
-4,-15,-1
-3,-17,1
-3,-17,-3
-3,-16,-2
0,-15,-6
5,-19,-5
11,-18,-4
15,-13,-6
15,-11,-5
11,-9,-7
3,-5,-2
0,-5,-3
-7,-3,-4
-13,-4,0
-20,-4,4
-28,-2,3
-27,0,2
-21,0,-3
-7,0,-3
3,0,-7
13,-3,-7
22,1,-8
27,0,-9
31,-1,-3
31,-6,0
33,-5,1
26,-10,6
18,-13,6
15,-12,12
7,-10,13
1,-7,19
-5,-8,16
-11,-2,22
-16,0,21
-18,2,23
-19,5,23
-19,10,21
-18,10,17
-17,12,14
-14,9,13
-13,5,11
-8,4,9
-7,3,5
-2,1,1
-4,-2,-4
2,-4,-1
5,-6,0
4,-10,-2
4,-12,0
4,-18,0
0,-20,0
0,-19,3
-4,-22,3
-5,-20,7
-5,-22,7
-4,-19,5
-2,-17,3
2,-18,2
3,-17,0
11,-17,0
13,-16,0
20,-16,0
21,-14,-1
24,-16,0
24,-13,1
20,-12,-1
21,-10,-3
18,-9,0
11,-5,-1
12,-6,0
7,-5,2
5,-4,2
3,-2,4
0,-3,7
1,1,9
0,3,8
0,3,10
0,5,7
0,3,9
3,5,5
5,4,5
7,3,5
9,3,5
10,4,2
14,6,7
15,1,8
19,1,7
20,3,4
22,3,5
22,2,4
25,1,4
25,-2,4
25,-1,2
26,-1,6
24,-2,5
20,-1,0
20,-5,2
17,-6,3
13,-7,3
10,-8,3
9,-7,4
1,-4,2
-2,-2,0
-4,0,3
-6,3,4
-6,3,3
-8,4,4
-9,5,5
-9,9,3
-4,9,1
-3,12,2
0,11,2
1,10,2
4,9,-1
7,10,-1
11,11,-6
10,13,-11
10,14,-11
8,16,-10
-2,24,-10
-8,22,-10
-22,21,-8
-31,21,-3
-46,24,-2
-46,26,-5
-40,28,-9
-31,31,-8
-20,29,-16
-8,31,-16
3,34,-11
10,37,-14
15,33,-11
12,34,-9
13,30,-9
10,28,-3
4,28,0
0,26,1
-9,29,4
-15,31,9
-24,33,12
-26,33,14
-28,33,18
-28,31,19
-29,34,11
-27,32,12
-30,34,8
-27,36,7
-24,34,5
-21,30,2
-20,28,2
-14,19,3
-8,19,0
-3,14,0
0,13,-1
2,15,0
1,13,1
1,5,2
4,9,0
0,8,5
-5,19,4
-5,17,5
-9,23,3
-7,24,-1
-4,20,-5
-5,15,-12
-3,7,-18
-6,0,-19
-4,0,-20
-4,1,-20
-5,2,-17
-8,8,-14
-3,11,-11
-6,18,-9
-6,20,-6
-10,25,-3
-11,30,-2
-14,31,-1
-15,34,-1
-18,35,-3
-19,39,-6
-24,47,-6
-24,50,-2
-25,56,-4
-27,51,-3
-26,57,-6
-23,60,-4
-20,55,-5
-20,49,-4
-18,39,-11
-15,38,-8
-16,38,-10
-16,34,-10
-17,28,-12
-17,24,-13
-15,27,-13
-19,19,-15
-22,19,-19
-21,20,-17
-23,18,-17
-24,19,-17
-27,29,-22
-32,32,-19
-35,22,-16
-34,30,-16
-37,44,-20
-34,42,-19
-36,37,-17
-34,41,-14
-35,40,-11
-36,38,-12
-34,42,-10
-31,40,-12
-30,39,-10
-26,39,-10
-28,38,-11
-26,36,-10
-25,33,-12
-24,35,-12
-19,29,-8
-16,31,-12
-11,30,-10
-9,33,-14
-9,33,-13
-14,36,-12
-17,30,-10
-23,26,-7
-26,25,-4
-34,22,0
-34,21,-1
-29,20,-3
-15,19,-3
-8,19,-10
2,21,-9
7,26,-12
12,28,-13
13,30,-14
16,28,-13
15,29,-13
14,27,-7
11,28,-6
5,29,0
0,27,4
-2,26,9
-5,22,11
-8,17,16
-12,14,17
-11,13,18
-12,13,21
-13,15,16
-12,12,20
-13,13,16
-14,13,14
-15,11,11
-9,9,10
-9,7,9
-5,-1,9
0,-6,7
4,-8,5
10,-14,3
13,-20,-2
16,-31,0
18,-37,0
15,-43,-1
10,-43,-2
11,-53,2
5,-54,4
1,-45,2
-1,-39,6
2,-37,5
2,-34,3
5,-38,1
6,-45,1
9,-35,0
6,-24,-3
5,-14,-2
2,-12,-2
0,-3,0
-2,-6,2
-2,-11,1
-5,-21,3
-8,-66,5
-10,-31,6
-7,-21,9
-7,-19,4
-8,-10,7
-5,-2,4
-9,-5,7
-8,-2,8
-8,1,8
-9,4,7
-7,6,11
-7,10,10
-6,18,10
-3,27,14
0,33,13
0,30,15
1,31,14
7,31,17
8,28,14
11,32,15
10,34,18
9,32,15
7,35,15
7,34,16
2,38,14
-2,34,14
-6,31,10
-10,29,13
-11,28,9
-19,22,10
-21,20,9
-27,20,6
-28,16,3
-27,13,6
-28,11,1
-24,5,2
-25,-1,0
-28,-1,-2
-23,-12,1
-21,-16,0
-19,-20,3
-15,-18,2
-9,-21,2
-6,-25,4
0,-26,1
0,-22,3
-4,-13,6
-8,-3,5
-14,-8,7
-20,-7,10
-18,-10,9
-10,-12,7
-1,-19,0
8,-20,-6
20,-27,-12
23,-31,-15
25,-32,-17
27,-32,-17
22,-28,-10
14,-28,-6
5,-28,-5
-3,-26,2
-6,-26,7
-11,-24,11
-14,-21,15
-13,-25,20
-18,-26,19
-18,-24,20
-19,-21,23
-16,-20,22
-16,-20,21
-17,-16,16
-15,-12,13
-11,-11,10
-8,-8,5
-6,-8,4
-7,-4,0
-8,-3,-4
-10,-3,-8
-6,-8,-10
-2,-10,-11
-5,-15,-12
-6,-17,-13
-7,-22,-12
-9,-26,-12
-9,-28,-9
-10,-27,-10
-7,-27,-4
-6,-26,-4
-4,-26,-2
0,-21,-2
2,-23,-4
6,-21,-7
14,-22,-7
15,-23,-10
18,-22,-10
16,-24,-9
14,-26,-12
10,-28,-12
11,-30,-11
4,-32,-12
0,-32,-13
-1,-36,-7
-1,-30,-10
-3,-19,-6
-5,-8,-5
-6,5,-6
-7,10,-3
-9,9,-1
-7,9,0
-6,4,-1
-5,-1,3
-3,-8,3
-1,-14,3
3,-16,3
6,-21,0
6,-27,0
9,-33,3
14,-36,3
16,-37,5
19,-35,5
20,-31,4
23,-21,6
21,-15,5
21,-7,8
18,-3,3
16,0,4
10,4,4
5,4,1
-1,3,-1
-3,1,-1
-10,-1,-8
-17,2,-4
-18,1,-8
-22,-1,-11
-24,-5,-12
-26,-5,-10
-26,-9,-6
-26,-14,-7
-22,-22,-7
-18,-22,-6
-14,-26,-6
-12,-28,-5
-10,-28,-6
-10,-33,-2
-14,-33,0
-18,-31,3
-25,-32,6
-32,-30,14
-33,-27,16
-30,-26,14
-22,-25,15
-14,-25,14
-1,-24,12
8,-24,11
19,-19,11
25,-15,12
29,-10,5
38,-8,11
39,-4,5
41,-5,5
46,-1,2
42,-1,0
42,-3,1
41,-5,2
42,-9,0
35,-5,0
37,-3,0
30,-1,-4
31,3,-10
31,1,-6
27,2,-8
24,0,-11
20,-1,-15
16,-3,-16
11,-6,-14
2,-9,-15
-2,-12,-18
-5,-16,-18
-9,-20,-18
-12,-19,-19
-15,-21,-18
-18,-21,-17
-21,-26,-20
-21,-26,-22
-21,-28,-19
-18,-31,-20
-18,-29,-21
-20,-31,-17
-19,-28,-20
-14,-26,-19
-10,-24,-19
-5,-22,-18
0,-22,-17
3,-19,-18
10,-18,-17
9,-14,-21
18,-14,-17
17,-14,-19
17,-13,-18
14,-12,-22
18,-12,-18
16,-10,-19
10,-10,-16
8,-11,-15
5,-8,-14
2,-8,-13
0,-7,-8
0,-7,-6
-1,-4,-7
4,-5,0
9,-4,4
9,-6,8
13,-2,9
17,-4,11
23,-1,10
29,-2,15
29,-1,11
35,2,12
38,-1,10
38,-1,7
36,0,8
34,-2,8
35,-1,6
35,-1,7
30,1,6
26,2,3
23,2,2
24,0,3
22,3,-1
20,2,0
23,1,-3
19,0,-4
18,-4,-3
23,-7,-2
20,-12,-4
20,-14,-6
18,-16,-8
16,-18,-8
13,-18,-9
9,-11,-12
3,-13,-8
-4,-13,-8
-7,-12,-9
-14,-7,-6
-20,-5,-3
-28,0,0
-29,3,0
-29,7,1
-21,7,2
-11,9,-4
-4,10,-6
9,9,-5
19,7,-4
30,6,-5
36,3,-6
41,-2,-3
36,-2,-2
35,-3,0
25,-4,2
23,-8,7
16,-10,3
9,-10,6
3,-6,10
1,-8,13
-1,-5,18
-5,-1,21
-5,0,21
-5,1,22
-7,5,23
-7,2,21
-5,0,22
-7,2,21
-3,6,18
0,1,20
1,0,15
0,5,13
3,1,9
3,-4,8
5,-3,9
5,-3,8
2,-6,9
3,-6,4
1,-4,5
0,-9,3
0,-8,4
-2,-10,4
-1,-7,3
1,-5,4
5,-5,2
6,-5,-3
8,-5,-1
8,-5,-2
14,-7,-5
14,-6,-5
19,-13,-3
17,-14,-5
20,-16,-6
21,-15,-5
22,-15,-6
21,-15,-6
19,-16,-7
17,-17,-4
16,-16,-4
13,-14,-1
10,-13,-1
10,-11,4
6,-9,5
4,-8,6
4,-7,8
2,-3,9
2,1,7
4,1,6
1,7,6
0,7,5
2,10,7
0,9,6
4,8,6
5,6,5
3,4,3
2,3,4
5,0,4
5,-1,7
3,-2,4
0,-2,3
0,-3,3
1,-2,10
-2,-4,9
-2,-4,7
-5,-6,10
-5,-7,10
-6,-6,6
-7,-2,6
-8,-3,2
-9,-1,1
-8,-1,0
-9,2,2
-6,2,-1
-9,4,-3
-13,2,-2
-22,6,-4
-25,1,-3
-29,0,-4
-34,-3,0
-40,1,3
-44,2,3
-42,3,3
-34,3,-4
-24,3,-6
-17,5,-9
-5,8,-11
4,7,-11
13,6,-12
16,5,-10
21,3,-7
23,1,-8
20,-3,-6
15,-6,-6
13,-7,-2
5,-8,0
-4,-9,2
-12,-9,5
-18,-6,7
-22,-2,10
-26,-3,11
-24,1,10
-23,-1,12
-23,3,12
-18,4,12
-16,3,5
-12,4,6
-8,2,4
0,1,5
2,0,0
6,-3,1
10,-2,0
8,-3,-1
11,-3,-1
8,-4,2
6,-8,1
7,-7,2
5,-8,3
2,-6,0
-2,-7,3
0,-6,4
-3,-7,0
1,-6,0
3,-5,-3
9,-6,-5
10,-8,-7
13,-13,-10
18,-15,-11
19,-14,-12
19,-18,-15
22,-19,-14
22,-19,-18
22,-18,-15
20,-17,-12
15,-19,-9
9,-18,-11
4,-15,-10
0,-19,-8
-3,-13,-4
-7,-13,-4
-7,-12,-2
-13,-9,-3
-11,-7,-3
-15,-4,-1
-13,-2,-4
-14,1,-2
-10,0,-1
-11,0,-3
-7,-3,0
-4,-1,-3
-3,0,-1
1,0,0
3,-4,2
2,-1,0
4,-1,4
7,-2,3
7,0,4
7,1,6
8,-1,5
10,0,8
11,1,8
14,-2,3
12,-3,2
13,-5,5
12,-4,4
12,-7,5
10,-5,4
9,-8,2
12,-7,0
13,-11,3
12,-11,2
13,-13,4
14,-12,2
13,-15,2
20,-14,1
20,-12,-2
18,-10,-3
14,-3,-2
8,-6,-1
5,-3,0
-1,-4,2
-11,-1,4
-19,0,7
-23,2,6
-21,1,2
-13,2,3
-3,2,-2
3,2,-5
16,-1,-9
24,0,-5
30,-3,-5
35,-7,-6
36,-11,-2
32,-11,0
25,-12,0
21,-15,5
18,-15,10
8,-15,14
1,-14,14
-6,-7,20
-12,-4,23
-15,0,24
-18,5,20
-24,12,20
-24,14,18
-23,15,13
-22,14,10
-23,15,7
-21,11,1
-20,7,0
-17,5,-1
-15,1,0
-13,-3,-2
-10,-9,-2
-10,-11,0
-9,-12,0
-5,-16,4
-8,-18,4
-8,-17,6
-8,-18,2
-6,-18,8
-6,-16,7
-6,-10,3
0,-15,2
5,-12,0
8,-12,-2
14,-10,-1
18,-13,-1
21,-16,-1
26,-14,-2
24,-14,-3
25,-15,-3
23,-14,-6
21,-13,-3
18,-15,-4
12,-13,-4
10,-6,0
4,-6,2
4,-4,2
1,-3,2
0,-4,4
-4,0,5
-5,4,6
-5,3,7
-5,4,7
-6,10,4
-2,8,1
0,7,4
3,4,3
7,4,5
6,2,3
8,2,3
11,-1,0
15,-5,3
16,-4,2
20,-3,8
22,-5,8
21,-4,8
22,-6,4
23,-1,7
20,-3,8
20,-5,6
20,-6,8
15,-6,7
14,-9,5
14,-9,2
12,-7,3
9,-8,2
8,-10,2
5,-6,4
7,-10,4
6,-11,1
9,-14,0
7,-15,2
7,-18,2
8,-16,2
9,-12,3
12,-12,3
16,-10,-2
17,-6,-2
17,0,-4
11,3,-6
8,5,-4
-2,5,-5
-10,5,0
-26,1,1
-30,1,4
-27,2,3
-15,1,2
-4,1,-2
10,0,-5
22,-1,-4
34,-1,-7
38,0,-5
44,-4,-2
41,-1,-2
40,-5,-1
34,-8,2
26,-10,6
19,-11,7
9,-11,12
0,-8,14
-5,-8,21
-10,-4,24
-13,-2,20
-14,0,21
-19,2,20
-17,6,16
-16,5,16
-14,7,16
-9,5,12
-4,3,12
-1,2,9
4,0,7
10,1,4
12,-2,1
14,-7,1
21,-9,-1
22,-10,2
22,-16,0
21,-17,0
14,-19,1
13,-24,2
10,-20,5
11,-20,3
10,-21,4
10,-20,4
12,-18,2
10,-18,3
13,-16,3
12,-15,0
13,-16,3
17,-15,2
14,-12,3
17,-9,3
15,-4,-1
15,-5,1
13,0,0
17,-1,1
10,0,-1
11,2,0
8,2,-2
8,4,-1
5,5,-1
6,4,0
2,4,-1
4,4,0
5,2,1
6,0,1
4,2,3
6,3,0
4,1,2
3,3,0
2,2,-1
1,2,-2
0,0,-3
2,0,-3
2,0,-2
1,1,-4
0,0,-7
0,4,-5
-2,3,-3
-1,2,-4
-2,-2,-1
-7,-1,-4
-7,-1,-4
-8,-2,-2
-11,-4,0
-13,-2,-3
-13,-8,-1
-11,-9,-1
-12,-7,0
-10,-8,-3
-7,-11,-2
-4,-10,-2
-4,-12,-4
2,-8,1
6,-10,-3
13,-8,-4
15,-1,-7
16,1,-9
12,4,-7
6,7,-5
0,8,-8
-6,8,-3
-20,12,0
-25,9,2
-28,9,0
-16,5,0
-7,6,-4
7,-1,-5
19,-2,-8
29,-2,-3
31,-4,-2
34,-5,0
33,-7,0
33,-10,3
29,-12,6
21,-10,9
15,-8,10
6,-6,14
2,-4,14
-4,0,15
-13,7,15
-16,9,16
-17,15,13
-17,18,12
-18,22,10
-20,19,9
-18,17,7
-17,14,9
-16,13,8
-12,7,2
-7,0,2
-2,-5,0
4,-10,-1
9,-13,-3
9,-14,-2
9,-16,-1
10,-18,-1
7,-16,0
3,-21,2
3,-18,0
-2,-19,3
-3,-14,0
-2,-15,2
-1,-11,0
3,-8,-1
4,-9,-2
8,-6,0
10,-6,1
11,-5,1
12,-4,1
12,-4,1
15,-7,2
18,-7,4
15,-3,2
17,-5,6
15,-3,7
13,0,12
11,0,10
13,-1,11
10,4,10
8,7,10
12,6,7
11,9,6
9,9,6
10,9,3
9,8,3
7,8,1
5,5,2
6,5,0
9,3,5
8,7,1
9,6,3
7,2,6
8,0,6
5,2,6
4,0,6
5,2,7
4,2,6
5,-1,8
4,-3,5
3,-3,8
1,-5,7
1,-3,6
2,0,5
2,0,2
2,-4,-1
2,-1,1
0,0,0
2,-1,-1
1,-2,-3
0,0,0
2,0,0
2,-3,0
3,-1,-2
6,-2,-4
9,0,-4
9,2,-5
0,4,-1
-5,3,-1
-11,5,0
-16,2,5
-28,6,7
-36,8,8
-35,6,10
-28,12,6
-13,10,2
0,13,-1
7,11,-6
15,14,-5
19,15,-9
22,17,-7
22,14,-2
19,14,-7
16,11,-5
18,8,-4
10,6,-5
9,2,-4
8,-1,-1
6,-1,0
1,-3,6
-1,-1,6
-2,0,10
-4,5,10
-5,4,9
-9,5,5
-9,1,6
-10,2,8
-13,0,8
-14,-3,7
-15,0,3
-14,-5,5
-14,-3,0
-11,-9,-2
-6,-11,-2
-4,-10,-8
1,-10,-9
4,-10,-8
2,-7,-7
2,-6,-8
0,-6,-4
-5,-3,-2
-4,-4,0
-10,-2,0
-10,-2,1
-11,-1,-2
-7,-1,1
-4,1,-8
-3,-1,-9
0,0,-12
1,0,-14
0,-1,-17
1,-3,-19
2,-4,-17
5,-7,-16
2,-5,-16
-2,-6,-15
-6,-7,-15
-8,-4,-13
-9,-4,-8
-14,0,-4
-20,2,-2
-21,5,2
-24,8,4
-22,11,6
-21,12,3
-17,14,4
-9,14,3
-5,12,4
-1,12,0
5,11,0
7,10,0
11,4,-2
14,2,-1
16,3,0
16,-2,-2
15,-3,0
15,-5,-4
14,-5,-2
15,-6,-1
11,-4,0
13,-4,-2
8,-2,0
8,-1,0
5,0,0
3,0,2
4,0,-1
3,1,0
0,0,-4
2,0,-3
0,-2,-3
-4,-1,-5
-2,-1,-5
-4,-3,-5
0,-7,-8
3,-7,-10
6,-4,-13
4,-4,-9
0,-2,-7
-7,-3,-7
-10,-1,-5
-17,-2,-5
-28,1,2
-42,6,3
-46,6,3
-46,8,2
-39,9,0
-27,9,-2
-15,12,-5
-6,13,-14
2,13,-13
11,14,-13
17,12,-14
23,5,-11
23,1,-13
23,-1,-8
20,-1,-8
16,-6,-2
14,-5,3
5,-5,4
1,-6,8
-3,-5,14
-8,-6,14
-12,-5,17
-15,0,20
-18,0,18
-18,2,13
-19,4,15
-18,3,15
-16,5,10
-14,2,10
-12,4,5
-12,2,3
-5,0,3
-4,-1,0
1,-1,0
3,-3,-3
7,-4,0
7,-6,-2
10,-9,0
9,-15,3
7,-12,1
4,-11,2
4,-10,3
1,-9,1
3,-8,-2
0,-9,-1
1,-8,-4
0,-3,-8
-2,-2,-9
0,-1,-8
-2,-2,-12
-3,0,-16
-6,-1,-15
-7,-1,-19
-6,-4,-16
-8,-2,-18
-6,-2,-15
-10,-1,-17
-11,-4,-15
-11,-6,-13
-13,-3,-15
-17,-4,-11
-15,-1,-8
-18,-3,-5
-20,0,-4
-20,-1,-8
-22,0,-3
-22,1,-7
-21,3,-6
-16,0,-3
-17,3,-4
-15,3,-4
-14,4,-1
-12,8,-4
-7,5,0
-6,5,-2
0,5,-3
2,5,-2
10,5,0
7,4,0
11,6,-1
14,4,0
16,2,0
18,0,0
19,0,4
19,1,2
22,0,5
18,-2,2
21,-4,5
20,-5,5
18,-7,2
20,-3,2
18,-5,2
19,-6,2
18,-7,-1
16,-6,0
12,-6,-2
15,-5,-3
15,-2,-2
12,-2,-3
15,-2,-3
8,-1,-1
2,0,2
-1,0,0
-9,2,4
-17,0,7
-28,7,6
-30,6,10
-25,5,8
-21,5,6
-10,6,5
0,5,0
7,9,-3
14,6,-8
21,1,-6
26,-2,-12
28,-2,-9
25,0,-12
20,-1,-9
16,-4,-4
8,-5,-3
0,-2,-4
-6,-4,0
-12,-5,6
-16,-3,10
-21,-2,14
-20,-1,15
-21,0,16
-19,0,15
-18,1,13
-17,0,13
-15,-1,8
-15,0,8
-13,0,4
-11,-2,0
-11,-2,3
-5,-10,-1
-7,-6,-4
-8,-6,-5
-6,-5,-4
-7,-5,-1
-9,-5,-2
-10,-7,-1
-9,-6,0
-12,-2,-2
-12,-3,1
-14,-1,1
-14,-3,0
-13,-3,0
-15,-3,-2
-9,0,-2
-7,0,-3
-4,0,-8
-4,2,-5
2,0,-4
5,0,-7
6,2,-5
7,0,-6
9,-4,-4
12,-3,-4
13,-5,-1
12,-6,1
13,-7,2
13,-8,2
12,-7,4
16,-4,8
13,-6,7
12,-5,6
9,-4,9
7,-2,7
7,-2,8
4,2,3
5,2,4
1,3,4
5,0,3
4,1,4
5,4,4
5,2,2
3,2,2
3,1,1
6,3,0
5,-1,1
0,2,-5
2,-1,-1
2,-1,0
2,-1,-1
1,1,0
0,-2,1
1,-3,1
-1,-2,6
-1,0,6
-4,0,5
-3,1,5
-4,-1,5
-4,2,3
-2,0,3
0,-2,2
-2,-3,3
0,-4,-1
4,-2,0
5,-2,-2
10,-6,-1
10,-5,-3
11,-5,-4
14,-6,-6
16,-5,-7
16,-3,-3
8,-2,-1
4,-6,1
0,-1,3
-4,-6,7
-13,0,7
-23,0,8
-23,1,9
-23,2,10
-12,5,7
-4,7,3
7,10,-1
17,9,-1
27,7,-2
35,8,-5
39,6,-4
41,2,-2
39,0,0
31,-2,-1
24,-4,0
16,0,4
8,0,10
1,0,13
-9,2,13
-12,2,18
-17,5,19
-15,3,19
-18,5,17
-15,2,14
-12,4,18
-13,3,11
-7,0,7
-4,-3,5
-2,-4,4
-2,-3,3
0,-9,1
1,-10,-1
5,-9,-3
4,-8,-3
4,-10,0
1,-11,-1
-1,-13,2
-2,-12,0
-1,-12,0
-8,-13,0
-10,-12,1
-10,-10,3
-12,-13,0
-10,-13,1
-9,-11,-2
-5,-11,-6
0,-12,-7
2,-15,-8
9,-14,-13
10,-17,-12
12,-16,-13
12,-17,-16
13,-19,-13
17,-19,-13
15,-21,-14
13,-18,-10
11,-18,-10
7,-14,-1
3,-15,0
0,-10,4
-4,-9,4
-5,-5,4
-6,-2,5
-10,-1,5
-7,1,2
-7,2,7
-3,4,5
-5,3,2
-2,4,3
-1,2,1
1,2,1
2,0,2
5,0,1
7,-2,4
8,-4,3
7,-6,3
9,-7,7
7,-6,6
8,-4,5
9,-7,7
6,-6,7
6,-3,6
5,-6,6
6,-4,6
6,-3,2
8,-1,3
10,-3,2
8,-6,1
8,-7,3
8,-6,4
6,-7,3
4,-10,4
5,-12,2
2,-12,4
2,-15,3
0,-13,3
1,-14,5
4,-15,5
4,-13,3
4,-14,1
6,-10,0
11,-10,2
15,-10,0
18,-4,-1
16,0,-3
14,-2,-1
4,0,2
-2,-1,0
-9,2,0
-20,4,2
-32,1,6
-36,2,8
-35,4,6
-24,0,5
-11,3,3
0,3,0
14,2,-4
26,2,-7
32,0,-5
40,-2,-3
40,-8,0
40,-13,1
36,-16,7
26,-12,10
22,-15,14
16,-12,21
4,-10,23
-6,-3,25
-9,-3,25
-14,0,26
-14,8,23
-17,7,21
-17,10,19
-12,10,15
-13,12,8
-11,9,7
-7,5,5
-6,2,5
-4,0,1
-2,-4,1
0,-7,0
3,-10,-2
5,-18,0
3,-15,0
3,-20,2
0,-19,0
1,-22,2
-3,-19,4
-5,-19,2
-5,-19,5
-9,-15,9
-5,-18,5
-6,-16,3
-3,-14,0
3,-16,1
9,-15,-3
10,-14,-4
14,-16,-6
16,-15,-7
19,-15,-3
17,-13,-6
15,-14,-5
15,-11,-3
13,-12,-2
11,-10,-2
8,-9,0
1,-3,-1
2,-1,2
-1,0,2
-4,4,0
-5,4,4
-5,7,4
-5,8,3
-6,6,3
0,8,4
-1,9,5
4,8,4
7,6,3
11,4,2
14,4,4
18,3,6
20,2,6
21,0,6
19,0,7
24,-2,5
20,-3,6
22,-4,9
22,-4,7
19,-4,6
16,-3,2
13,-4,5
11,-4,6
6,-3,5
9,-3,5
6,-2,7
4,-5,3
4,-4,7
3,-9,9
0,-7,9
3,-10,9
3,-8,4
3,-11,6
6,-15,6
6,-11,3
6,-11,2
6,-12,5
8,-12,4
5,-7,3
5,-8,0
7,-5,3
9,0,-3
12,0,-3
8,4,-5
2,8,-8
-3,9,-4
-8,8,-4
-19,6,-1
-32,3,5
-39,1,4
-39,-1,3
-29,-2,3
-18,-5,0
-6,-5,-1
7,-5,-2
13,-6,-2
14,-5,0
17,-5,3
18,-2,7
18,0,11
13,6,13
8,6,13
4,13,18
-5,16,19
-7,20,20
-12,18,19
-16,24,23
-15,25,22
-11,21,20
-7,20,18
-4,16,15
-5,12,16
0,5,20
1,-2,14
5,-2,15
9,-8,16
15,-11,14
20,-15,12
24,-17,10
25,-19,6
24,-23,6
26,-22,4
24,-24,4
18,-28,1
14,-21,0
5,-21,1
0,-21,1
-6,-19,4
-11,-18,0
-12,-16,-1
-10,-14,-2
-9,-12,-3
-7,-13,-5
-8,-13,-8
-6,-9,-4
-5,-11,-4
-2,-10,-5
-2,-7,-5
-3,-9,-3
-1,-7,-3
-3,-7,-6
0,-6,0
-2,-3,0
-1,-1,0
-1,2,-2
-2,4,0
-1,7,-1
0,5,0
4,10,0
6,8,0
10,10,0
12,11,-2
15,12,-1
17,10,-1
19,7,2
16,5,1
23,1,1
24,1,-1
22,2,3
25,1,1
26,-1,1
26,-1,2
24,-1,2
24,-4,5
21,-2,11
21,-4,2
15,-2,4
11,-1,1
10,-4,4
10,-4,5
3,-4,0
0,-4,5
0,-7,1
-5,-7,0
-3,-5,2
-3,-12,2
0,-9,0
0,-10,0
2,-8,-1
2,-7,1
3,-5,2
5,-4,-3
7,-4,0
11,-2,0
14,0,0
18,2,0
18,5,-3
10,9,0
1,9,-1
-2,10,-2
-12,11,0
-25,8,6
-32,9,9
-29,3,6
-24,3,3
-10,2,-1
0,4,-2
7,3,-3
18,0,-2
23,3,-2
26,2,-2
26,0,2
24,-1,5
22,0,5
16,-1,10
13,-3,11
5,0,14
-1,2,17
-4,5,17
-6,6,17
-7,10,16
-8,13,14
-8,15,13
-6,16,8
-5,15,10
-2,11,8
0,7,6
1,6,2
5,0,2
5,-1,2
8,-4,-1
11,-10,-2
14,-14,-1
16,-15,-6
11,-16,-5
6,-18,-4
3,-18,-3
0,-20,-3
-6,-18,-3
-16,-17,-3
-19,-16,0
-20,-17,-2
-20,-18,0
-19,-10,-2
-14,-11,-4
-10,-9,-5
-6,-5,-8
-3,-7,-9
0,-6,-8
2,-9,-9
1,-8,-10
-2,-2,-10
-2,-3,-8
-4,-4,-4
-5,-2,-4
-9,1,-2
-11,3,-3
-15,4,-1
-14,7,3
-15,7,0
-14,8,0
-9,13,2
-5,7,1
1,7,0
5,7,-1
8,5,-1
13,5,0
13,2,-1
17,-1,-1
18,1,2
20,0,3
12,2,1
11,3,6
6,2,5
2,2,6
-4,3,5
-4,1,3
-8,0,2
-11,1,1
-8,0,4
-8,1,0
-8,-2,0
-6,0,0
-2,-5,0
-3,-4,1
-2,-5,0
2,-6,3
5,-6,0
6,-9,2
9,-9,0
9,-4,1
8,-5,6
9,-5,7
7,-5,7
5,-3,4
3,-4,7
4,-2,0
1,3,1
-3,6,-1
-9,10,-4
-16,8,-3
-23,11,-3
-30,14,-3
-40,14,0
-45,16,5
-36,12,2
-22,9,-1
-8,9,0
5,8,-6
17,4,-5
30,5,-8
35,3,-5
38,4,-1
39,0,0
36,2,0
29,0,5
19,0,6
11,-1,8
0,3,7
-8,0,10
-20,0,9
-29,4,10
-34,4,10
-40,7,7
-39,9,6
-43,12,7
-41,12,1
-37,13,1
-34,8,0
-30,7,-1
-20,0,-1
-12,0,-2
-6,-3,-2
4,-6,-2
10,-9,-2
18,-12,-2
22,-16,0
19,-16,-2
19,-17,-2
16,-16,0
8,-16,3
5,-14,4
1,-14,0
-4,-12,5
-5,-7,6
-12,-4,4
-10,-1,0
-6,-1,-6
-3,1,-8
3,0,-12
7,0,-14
13,0,-17
18,0,-13
20,-5,-16
26,-4,-15
27,-7,-13
24,-6,-11
23,-4,-7
21,-5,-4
17,-2,-4
9,0,0
3,2,3
-1,3,6
-9,9,5
-12,7,8
-19,11,7
-19,12,5
-21,13,5
-21,16,4
-19,15,0
-17,14,-2
-12,12,-2
-10,9,-2
-6,5,-2
-2,1,-3
-1,-2,-1
1,-3,-3
4,-4,-3
10,-6,-1
11,-8,1
11,-2,0
14,-6,4
11,-5,4
11,-3,2
10,-3,3
8,-2,3
10,-1,4
6,0,1
5,0,0
0,0,-3
3,0,-2
1,0,-6
2,-2,-7
1,-2,-7
0,-1,-6
0,-2,-7
3,-5,-6
3,-7,-10
3,-4,-9
5,-3,-7
1,-1,-5
-7,-2,-3
-13,-1,0
-19,1,0
-25,2,2
-31,9,2
-35,6,3
-33,5,5
-21,8,1
-17,10,-4
-4,10,-5
5,9,-8
14,7,-10
19,5,-12
19,1,-10
20,-3,-12
20,-5,-8
14,-4,-5
8,-6,-4
0,-4,0
-6,-3,1
-13,-2,4
-18,-3,4
-22,-1,11
-24,0,10
-25,2,10
-27,-1,8
-25,0,7
-26,1,8
-21,0,6
-21,-1,3
-22,-2,6
-19,-3,4
-19,-6,2
-22,-5,-2
-15,-9,0
-12,-7,-1
-8,-12,-1
-10,-8,-2
-6,-9,-5
-7,-5,-5
-7,-9,0
-3,-10,-4
-7,-6,-2
-11,-5,-1
-9,-4,0
-12,-3,-1
-12,-5,-2
-12,-6,-1
-12,-2,-4
-8,-5,-5
-5,-4,-9
-3,-4,-9
2,-2,-13
2,-4,-12
2,-9,-14
7,-7,-15
5,-9,-13
6,-8,-13
5,-11,-12
8,-5,-12
2,-8,-9
-1,-5,-9
-1,-6,-7
-5,-3,-5
-8,-3,-3
-12,1,-2
-14,2,-3
-16,3,-2
-16,7,-3
-14,9,-5
-14,8,-3
-13,6,-2
-12,7,-3
-12,5,-4
-11,3,-4
-9,3,-3
-7,1,-1
-13,0,-3
-7,-1,-3
-6,0,-2
-5,-1,-3
-2,1,0
-3,0,0
-2,-3,2
0,0,-1
-2,-1,2
-2,-1,0
2,0,0
0,3,3
0,0,4
1,-1,6
2,0,3
0,0,3
3,-2,5
4,-5,4
4,-1,3
4,-2,1
7,-1,5
9,-1,0
7,0,4
10,0,4
13,0,2
15,0,2
19,1,3
17,1,2
16,1,4
7,2,4
5,0,9
-1,4,3
-5,2,10
-17,7,12
-18,5,10
-15,6,9
-5,3,7
4,6,5
14,6,2
22,8,-1
38,4,0
42,5,0
49,0,5
47,2,6
46,2,14
42,-1,15
37,3,17
29,2,19
20,2,20
9,0,26
1,1,27
-7,-1,27
-9,0,28
-14,0,29
-18,-2,26
-14,-2,25
-16,-1,23
-14,-4,17
-11,-5,19
-8,-4,14
-8,-5,10
-6,-7,7
-5,-4,4
-7,-7,1
-3,-7,1
-3,-8,2
-3,-4,-1
-4,-8,5
-6,-4,5
-8,-2,4
-9,-6,1
-10,-4,1
-15,-2,4
-13,-5,5
-16,-2,2
-17,-4,2
-14,-4,-1
-13,-6,-4
-9,-7,-6
-9,-6,-9
-3,-7,-12
0,-10,-11
2,-11,-14
4,-10,-13
3,-10,-12
1,-9,-10
4,-10,-11
2,-11,-12
0,-10,-11
4,-11,-9
-2,-9,-6
-4,-8,-2
-2,-5,-5
-4,-6,-1
-4,-3,-3
-6,-5,0
-5,-3,1
-6,-1,1
-5,-1,3
-5,2,4
-1,0,2
-1,1,3
0,2,2
2,4,2
3,1,0
6,5,2
10,2,3
10,1,5
9,3,5
9,0,5
10,1,3
12,0,5
8,0,5
12,0,6
8,-2,6
11,1,4
6,-1,8
7,0,6
3,-1,5
4,-1,5
3,-4,5
1,-2,2
2,-2,1
2,-4,4
4,-6,1
6,-7,0
5,-7,1
4,-8,0
3,-12,-1
6,-8,0
6,-13,-4
8,-12,-2
8,-11,-1
4,-6,-5
3,-7,-7
2,-5,-5
2,-5,-1
8,-3,-3
3,-2,-5
0,0,-5
-8,5,-2
-15,0,0
-21,3,0
-24,2,0
-30,2,3
-36,5,2
-34,4,4
-27,7,1
-16,7,0
-3,11,-5
7,9,-4
15,9,-7
24,4,-6
28,0,-7
33,-2,-6
37,-3,0
30,-7,0
26,-5,1
18,-9,3
12,-7,8
2,-6,10
-2,-5,15
-6,-8,15
-7,-5,18
-10,-4,19
-13,-4,19
-9,-1,19
-10,-2,16
-6,0,12
-2,3,15
2,1,14
8,1,11
7,-1,7
8,-2,4
11,-3,4
11,-3,3
10,-6,0
11,-8,3
10,-6,0
6,-5,-1
1,-7,3
-1,-9,3
-6,-11,1
-8,-10,2
-13,-9,1
-19,-9,-1
-17,-12,0
-18,-8,-1
-19,-9,-4
-16,-10,-5
-9,-12,-7
-5,-13,-10
-2,-13,-13
1,-20,-14
5,-19,-14
3,-21,-15
3,-20,-12
2,-22,-12
0,-19,-11
-4,-19,-10
-6,-14,-8
-9,-13,-5
-13,-8,-7
-15,-8,-3
-17,-5,-4
-18,-1,-4
-15,2,-1
-19,5,0
-17,7,-4
-16,7,0
-13,4,0
-9,3,0
-8,2,-3
-1,-1,-1
-1,-2,-1
3,-2,3
7,-5,3
10,-5,2
11,-7,4
14,-6,6
16,-6,6
19,-5,3
16,-3,2
17,-2,5
19,3,4
20,0,3
19,0,5
20,-1,2
19,-2,3
21,-2,0
18,-4,-2
15,-5,-2
17,-9,0
11,-7,0
9,-7,0
9,-8,-1
8,-10,-2
7,-8,2
7,-11,0
6,-10,0
5,-7,0
0,-10,1
1,-7,0
0,-8,2
-1,-9,1
-3,-8,-1
4,-7,-2
0,-10,0
-4,-7,-2
0,-10,-5
0,-9,-2
5,-10,0
7,-8,-8
11,-5,-7
7,0,-8
1,0,-4
-5,3,-3
-10,3,-1
-18,5,0
-27,7,3
-34,6,5
-33,8,9
-27,6,5
-16,8,3
-2,8,-1
10,8,-3
24,7,-4
37,5,-4
43,-1,-3
46,-6,-3
49,-10,0
44,-10,2
36,-14,4
30,-17,10
23,-16,14
15,-12,15
8,-8,19
0,-6,20
-4,-3,21
-8,1,19
-10,7,14
-12,10,13
-13,12,9
-9,10,8
-7,12,3
-6,9,0
-5,5,-1
-1,-1,-1
0,-6,-3
4,-11,-2
5,-13,0
5,-17,-1
8,-19,-3
8,-21,-1
7,-18,-1
3,-18,0
3,-19,1
0,-17,-2
-4,-15,-1
-5,-15,1
-7,-12,2
-5,-12,-1
-3,-12,-1
-1,-15,-2
3,-15,-4
9,-16,-3
9,-15,-8
11,-17,-7
17,-18,-6
19,-16,-3
20,-19,-3
18,-12,-1
15,-12,2
11,-10,1
11,-6,4
6,-1,2
4,2,4
1,2,6
-1,6,3
-2,10,6
-2,7,7
-1,10,5
0,9,6
1,7,6
2,7,5
2,3,5
9,3,7
11,2,5
14,-2,3
14,-3,1
19,-4,5
17,-5,5
18,-4,3
17,-4,3
18,-6,3
17,-6,3
14,-6,3
15,-8,5
12,-6,2
10,-6,5
10,-5,5
7,-6,0
6,-7,1
8,-7,2
6,-9,4
2,-5,3
2,-5,1
0,-5,0
1,-4,1
0,-7,3
0,-7,0
-1,-9,0
-4,-6,2
0,-9,1
1,-7,2
0,-9,1
7,-6,1
8,-6,2
8,-8,2
12,-10,5
12,-6,1
13,-10,1
18,-7,0
20,-6,-1
21,-2,-1
16,0,-2
14,1,-2
8,4,-3
1,4,-2
-3,5,1
-17,0,6
-24,0,9
-21,0,8
-11,1,4
0,-1,0
16,0,-1
30,-1,-1
43,0,-1
47,0,-2
51,0,-1
51,-4,2
49,-3,2
49,-5,8
37,-3,10
29,-5,12
19,-4,17
12,-3,19
2,0,21
-1,1,25
-5,4,20
-10,6,20
-13,10,16
-12,12,14
-13,9,16
-12,9,11
-10,8,8
-7,5,6
-8,5,5
-2,0,3
2,-2,4
5,-2,1
9,-7,1
12,-9,0
15,-10,1
13,-11,0
10,-12,2
8,-13,1
7,-12,0
0,-6,0
0,-5,0
-6,-3,4
-8,0,0
-5,5,0
-4,7,-4
1,10,-3
6,9,-5
10,12,-7
17,12,-5
25,10,-9
30,7,-10
37,4,-10
41,-1,-7
45,-4,-6
46,-4,-6
47,0,-4
47,-6,1
41,-4,-1
40,-4,2
36,-5,4
31,1,2
25,3,7
18,5,7
20,5,9
12,12,3
11,7,6
6,12,3
3,9,2
1,11,0
2,11,2
4,7,0
2,4,0
3,3,-2
5,1,0
8,-1,-1
5,0,1
6,-4,-1
7,-4,0
7,-5,1
9,-4,1
7,-5,1
5,-1,2
5,-1,4
0,2,0
1,-1,1
0,-2,-1
-4,1,0
-4,-4,-1
-4,-3,0
-8,-3,1
-11,-6,0
-8,-6,0
-7,-9,-1
-6,-7,0
-6,-11,-3
-3,-8,-2
-1,-8,-1
0,-4,2
0,-9,-1
4,-7,0
3,-6,-1
7,-2,-4
9,0,-3
2,6,-5
-6,8,-4
-11,7,-6
-19,8,-4
-27,9,-2
-35,9,4
-36,7,4
-29,8,2
-15,3,-2
-5,1,-4
8,2,-5
18,-1,-7
25,0,-4
30,0,-4
32,0,1
29,-4,0
23,-7,0
19,-6,5
12,-6,7
2,-4,9
-2,-1,9
-11,3,12
-13,6,12
-17,9,8
-20,11,11
-21,14,11
-19,15,9
-19,15,8
-16,14,8
-14,8,7
-10,5,4
-6,4,4
-2,-4,1
5,-9,2
8,-14,0
15,-14,-1
18,-18,0
19,-13,-3
20,-19,-1
21,-15,-1
15,-12,-4
10,-12,0
3,-9,-2
-3,-8,0
-9,-8,0
-13,-6,1
-16,-5,0
-18,-2,0
-15,-4,-1
-9,-6,-5
-5,-3,-5
1,-6,-11
4,-8,-7
7,-11,-6
7,-10,-5
12,-13,-1
14,-12,-2
11,-10,-1
12,-6,2
12,-5,2
10,-1,5
10,4,8
9,9,4
7,11,9
4,13,6
6,16,6
6,13,6
9,14,1
8,12,0
9,10,0
13,10,-1
11,7,-2
15,2,-2
15,0,0
17,-1,0
16,-3,0
17,-2,1
15,-7,4
13,-6,3
11,-6,5
11,-6,3
8,-4,4
8,-2,2
2,0,-1
3,0,0
1,-1,0
-2,-2,-3
-3,3,-1
-3,-1,-4
-6,-3,-2
-9,-4,-1
-9,-6,-2
-10,-8,-3
-7,-5,-2
-8,-6,0
-7,-8,-1
-8,-8,-3
-8,-7,-1
-7,-4,-2
-5,-7,1
-8,-7,1
-7,-5,0
-3,-6,0
0,-5,-3
2,1,-6
1,3,-4
-1,6,-3
-5,5,0
-9,5,0
-10,5,1
-18,7,4
-21,4,5
-12,3,6
0,4,0
9,0,-3
25,2,-5
30,0,-3
38,-1,0
39,-3,-2
36,-3,2
32,-7,4
27,-7,3
21,-7,11
13,-11,13
7,-9,15
1,-7,16
-6,-3,17
-10,0,20
-17,5,16
-18,6,18
-20,7,10
-19,7,14
-18,10,9
-18,10,9
-15,8,4
-11,5,3
-12,4,-1
-10,0,2
-5,-2,-1
-1,-7,-2
1,-10,-3
6,-11,-4
9,-14,-5
8,-18,-5
10,-17,-6
8,-13,-4
5,-12,-4
0,-13,-2
-4,-10,2
-7,-10,-3
-12,-10,3
-13,-9,0
-15,-6,0
-12,-6,-1
-7,-5,-1
-3,-8,-5
-1,-6,-7
4,-8,-3
5,-6,-6
6,-6,-5
8,-5,-3
6,-6,-4
6,-2,-3
5,1,0
7,1,1
3,4,2
2,6,5
-1,10,4
-2,8,7
-4,10,7
-3,10,6
-5,11,4
-3,12,6
0,9,6
2,7,4
3,5,1
3,3,1
5,2,3
6,1,1
5,-3,3
6,-1,2
3,0,3
5,-3,4
4,-5,1
3,-6,7
1,-2,2
0,-2,2
2,-2,4
1,-3,3
0,-6,4
-3,-5,4
0,-4,3
-7,-4,0
-7,-6,3
-7,-7,4
-7,-7,2
-12,-5,0
-8,-7,0
-10,-6,0
-11,-6,-2
-12,-5,-5
-11,-6,-1
-11,-4,-5
-3,-5,-4
-6,1,-6
-2,0,-9
-3,0,-7
-2,1,-6
-4,1,-2
-5,-1,-3
-5,-2,-3
-3,1,0
-13,5,-2
-21,3,2
-25,7,0
-33,10,1
-40,10,7
-48,16,7
-52,16,7
-44,17,5
-30,14,4
-15,16,-3
2,15,-10
17,15,-9
34,12,-8
45,9,-7
49,4,-5
54,0,0
56,-5,1
52,-5,1
40,-5,3
33,-6,8
26,-10,12
11,-8,16
2,-9,16
-7,-11,18
-12,-6,15
-17,-1,16
-22,1,12
-26,2,8
-23,1,7
-25,5,5
-24,2,5
-25,0,1
-19,2,-2
-19,0,-2
-15,-3,-1
-13,-6,0
-12,-10,-4
-6,-16,-6
-2,-12,-4
0,-11,-6
0,-13,-5
-3,-13,-5
-5,-12,-7
-7,-10,-5
-7,-9,-6
-14,-10,-6
-18,-7,-4
-21,-5,-3
-21,-4,-5
-17,-7,-7
-15,-1,-5
-12,3,-10
-9,1,-9
-5,3,-10
-2,0,-12
0,4,-10
0,2,-10
-1,1,-10
1,0,-10
2,-2,-7
-4,-1,-6
1,1,-3
-1,-1,0
-6,2,-1
-9,0,0
-12,3,3
-11,4,0
-12,4,5
-12,4,3
-13,6,0
-9,9,3
-10,8,1
-10,11,-3
-9,8,-2
-6,9,-1
-4,8,-1
-2,6,-4
-3,6,-4
1,3,-2
0,1,-3
-1,1,0
-2,-1,0
0,-2,2
2,-3,2
1,-6,0
3,-6,-1
0,-2,0
-2,0,-1
-5,2,-4
-6,1,-1
-6,0,-4
-8,0,-1
-8,0,-3
-10,3,-1
-12,0,-4
-11,2,-1
-11,2,0
-9,-1,-1
-11,-2,-1
-8,-5,-2
-11,-5,-2
-6,-5,0
-5,-6,0
-3,-8,-1
-3,-4,-4
-5,-3,-6
-1,-5,-8
-3,-5,-6
0,-3,-9
1,-2,-11
0,0,-10
0,4,-7
-11,4,-9
-13,4,-5
-19,7,-5
-24,6,0
-35,10,0
-38,10,4
-36,11,7
-29,11,5
-19,12,3
-6,12,-1
7,12,-4
18,10,-8
29,10,-9
35,6,-8
39,1,-10
41,0,-6
38,-1,-6
28,-3,-8
23,-2,-3
18,-4,0
7,-3,2
0,-1,7
-3,-3,7
-9,-2,9
-10,-2,8
-10,0,8
-13,-1,9
-11,0,9
-10,3,7
-10,1,7
-9,3,4
-7,-1,1
-5,-3,2
-7,-3,3
-4,-3,0
-6,-5,1
-5,-6,-1
-5,-7,-2
-6,-7,-3
-2,-8,-3
-5,-4,-4
-4,-8,-3
-6,-5,-4
-8,-4,-4
-8,-4,-4
-12,-2,-1
-12,0,-2
-13,-3,0
-13,3,0
-10,0,-2
-7,2,-4
-4,3,-8
1,1,-9
0,1,-7
1,0,-9
5,-2,-6
4,-2,-8
7,-4,-9
9,-3,-10
8,-4,-6
7,-4,-5
4,-3,-4
0,-2,-4
0,-3,-1
3,-1,-1
0,-1,1
0,3,0
0,4,-1
-1,6,0
-1,4,1
2,4,1
1,3,1
0,3,1
4,1,1
2,5,1
3,3,2
6,3,2
6,0,0
7,0,1
7,0,1
10,0,1
5,0,0
7,2,2
7,2,3
7,0,6
3,1,4
3,-1,5
5,0,5
6,0,6
2,1,4
2,-2,5
-1,-1,5
0,-2,3
1,-1,3
2,-2,3
-1,-1,0
0,-1,2
1,-3,0
1,0,4
4,-1,7
2,-1,2
3,0,0
2,-2,1
4,-1,0
4,-2,-3
6,-3,-1
1,0,-8
4,0,-7
6,-1,-3
5,-1,-3
4,-2,-2
7,0,-3
7,0,-2
3,4,0
0,3,2
-6,2,2
-10,1,3
-14,4,6
-20,6,6
-25,7,7
-27,8,9
-20,7,6
-12,7,3
-5,9,0
6,13,0
18,13,-3
22,8,-6
30,9,-7
31,7,-9
31,-1,-9
28,-3,-4
24,-4,-4
17,-6,0
8,-7,2
1,-7,6
-5,-8,7
-11,-5,8
-15,-6,10
-16,-7,12
-17,-1,13
-15,-4,11
-14,0,11
-13,0,8
-12,0,9
-8,0,6
-10,0,0
-5,-2,1
-5,-1,1
-3,-2,2
-3,-2,0
-1,-2,-1
-2,-5,-3
2,-3,-1
1,-2,0
0,-3,0
-2,0,-2
-4,-1,-3
-4,1,0
-5,2,0
-7,0,-3
-7,0,0
-12,2,-2
-8,-1,-2
-7,0,-3
-5,-1,-4
0,-4,-9
4,-6,-7
6,-7,-5
5,-6,-9
8,-7,-12
7,-8,-9
5,-9,-7
7,-10,-6
4,-8,-4
4,-11,-1
1,-9,-2
0,-5,1
-3,-5,0
-6,-3,0
-5,-2,2
-7,0,1
-5,-2,3
-5,1,2
-3,1,3
-3,1,2
0,0,3
1,0,0
5,0,2
5,0,4
8,0,2
11,0,1
13,-2,4
11,-4,4
12,-2,7
12,-1,5
15,-1,7
9,-4,7
14,-4,6
12,-4,7
10,-3,6
13,-1,7
12,-6,6
12,-4,6
9,-3,6
8,-4,6
9,-4,7
7,-6,4
7,-6,6
4,-5,5
2,-6,5
3,-5,5
5,-7,3
2,-9,4
1,-10,2
4,-10,4
6,-9,3
5,-12,3
5,-10,3
3,-9,-2
3,-10,0
5,-11,-1
5,-10,-3
7,-7,-4
2,-9,-3
4,-10,-4
6,-10,-1
11,-7,-2
11,-5,-4
11,-3,-3
5,-1,-2
-1,-3,0
-8,-1,1
-13,-4,4
-20,-1,4
-28,-2,8
-30,1,9
-29,0,7
-19,0,3
-6,4,0
5,1,-1
18,1,-4
29,2,-4
36,-1,-4
43,-4,-2
44,-12,1
42,-13,2
35,-15,6
26,-17,12
21,-18,11
14,-14,19
10,-16,20
5,-12,23
-3,-8,21
-5,-6,19
-3,0,19
-6,5,16
-6,5,7
-4,5,8
-5,3,9
-7,4,6
-7,3,3
-5,-2,0
-6,-4,0
-3,-6,-2
-4,-9,0
-1,-9,-2
-1,-13,-1
1,-15,-3
3,-14,0
1,-13,1
0,-14,-1
-3,-16,1
-4,-15,1
-7,-13,1
-9,-13,3
-12,-14,-1
-12,-14,0
-8,-12,0
-4,-11,-3
0,-12,-4
3,-11,-5
8,-9,-7
10,-9,-6
12,-6,-6
13,-7,-3
12,-7,-4
11,-9,0
9,-4,-1
8,-4,2
8,-3,2
6,0,6
5,1,3
6,0,3
1,3,8
2,10,3
2,7,3
3,9,5
8,6,9
8,6,4
10,8,4
11,5,4
9,5,2
13,1,5
12,1,3
16,-1,6
13,-1,4
14,-2,7
14,0,5
13,-5,6
13,-4,5
13,-2,6
13,-3,4
10,-2,5
11,-4,3
9,-5,1
7,-7,2
8,-6,3
6,-5,2
8,-8,1
4,-7,0
6,-7,0
7,-7,1
4,-4,-2
3,-6,3
1,-5,3
3,-3,1
0,-5,2
3,-7,5
-1,-5,7
0,-9,3
-1,-6,2
-2,-5,0
-1,-6,3
1,-8,0
0,-6,2
1,-4,3
4,-4,4
4,-3,4
5,-3,2
8,-1,1
10,3,1
14,0,1
12,5,-2
11,8,-2
7,8,-1
0,10,1
-8,7,2
-19,8,5
-25,5,8
-26,1,9
-21,0,8
-8,3,4
8,2,1
21,-3,-1
32,-1,-2
40,0,-2
47,-1,-2
44,-3,-2
41,-7,1
38,-8,5
32,-9,7
23,-6,12
16,-4,10
5,-4,14
-1,1,19
-8,4,14
-10,5,19
-12,8,15
-14,10,11
-11,12,9
-9,9,8
-6,10,3
-2,7,3
-5,8,-1
-2,3,-1
0,-2,-2
2,-3,-4
7,-5,-1
9,-9,-3
14,-12,-7
14,-11,-3
16,-11,-3
18,-11,-8
19,-11,-3
13,-13,-4
9,-13,-3
4,-12,-4
2,-11,0
-4,-9,-1
-8,-10,-1
-6,-10,-2
-10,-10,0
-9,-7,-1
-5,-8,-2
-6,-7,-2
0,-8,-2
3,-4,-1
5,-4,-4
5,-6,-2
5,-3,-1
6,-3,-1
7,0,0
6,1,0
6,-1,2
7,3,3
1,6,2
1,6,4
-1,11,3
1,10,3
-1,8,3
0,11,1
0,10,3
1,9,1
2,10,-1
3,9,0
4,5,1
6,6,-3
9,7,-2
11,2,-3
11,3,-2
11,-1,0
12,0,-2
11,-3,0
10,-5,3
8,-6,0
7,-7,0
5,-6,0
3,-9,-1
3,-5,-1
3,-5,-1
1,-7,-1
-1,-6,-3
0,-2,0
-2,-4,0
-6,-1,0
-4,-3,0
-6,0,0
-2,-1,3
-1,0,0
-2,0,1
-2,1,-1
2,0,0
1,2,-3
4,2,-1
6,0,0
7,1,0
7,-1,0
5,0,1
5,0,1
7,0,-1
13,-1,0
12,1,-2
8,5,-1
4,5,0
-1,8,2
-11,6,4
-19,6,8
-27,6,7
-27,5,10
-22,3,7
-10,2,1
3,2,0
16,2,-7
27,1,-4
31,0,-3
35,1,-4
36,2,-3
32,-1,0
25,-1,0
24,-1,2
14,0,5
7,0,6
0,2,10
-5,2,10
-8,8,12
-10,7,13
-12,11,13
-14,15,12
-15,12,11
-13,12,9
-9,8,9
-11,12,6
-6,6,6
-6,5,5
0,-1,2
-1,-4,1
4,-8,1
7,-11,0
9,-14,-4
12,-13,-2
16,-15,-4
15,-17,-6
13,-15,-5
7,-15,0
4,-14,-2
-1,-13,0
-8,-15,1
-12,-11,-2
-13,-12,3
-14,-9,0
-9,-10,-1
-6,-7,-3
-4,-6,-3
0,-4,-4
4,-5,-5
5,-5,-6
8,-4,-7
7,-6,-4
8,-3,-7
6,-4,-1
5,-2,-2
4,0,0
1,3,3
2,8,3
1,8,3
3,11,4
1,11,4
2,13,0
2,13,1
4,12,2
6,11,0
10,6,0
12,6,2
16,3,0
17,0,1
23,0,2
25,0,3
26,-4,1
25,-5,1
24,-4,7
23,-6,7
21,-5,7
19,-5,6
16,-4,4
13,-5,5
11,-2,5
10,0,3
6,-2,4
1,-2,2
3,-2,1
-2,0,0
1,-2,0
-1,0,-1
-5,0,0
-4,-5,1
-3,-3,2
-2,-4,0
-1,-3,-2
0,-6,-2
3,-4,-2
4,-4,0
3,-3,-2
3,-5,-1
2,-4,2
0,-4,1
0,-1,-2
3,-3,-1
2,1,-4
0,5,-2
-7,6,-2
-14,8,-5
-18,8,-5
-24,6,-2
-35,8,0
-36,6,3
-35,5,4
-29,5,-2
-11,4,-3
0,2,-5
9,-4,-5
19,-2,-5
23,-2,-5
26,-3,-1
25,-2,2
25,-8,2
21,-3,2
17,-3,5
11,-4,7
1,-2,11
-4,-1,12
-6,0,14
-12,3,13
-10,6,15
-7,7,9
-10,11,9
-8,11,10
-10,10,7
-7,9,6
-6,6,4
-3,7,2
0,1,-1
2,0,3
8,-4,0
10,-10,0
14,-13,-3
18,-13,-3
22,-17,-1
23,-15,-2
17,-14,-5
16,-15,-1
9,-13,-3
5,-9,-5
-2,-11,0
-8,-11,0
-15,-10,2
-18,-9,-1
-16,-9,0
-16,-8,-4
-10,-4,-5
-5,-6,-9
-2,-2,-7
-4,-7,-8
-1,-1,-12
0,-3,-6
1,-5,-6
2,-3,-4
-2,-2,-1
-2,0,0
-5,0,3
-1,0,2
-3,7,5
-2,6,7
-3,7,11
-3,11,9
0,9,10
0,8,11
3,10,8
8,9,4
9,10,8
11,7,6
11,3,5
14,3,4
20,1,3
21,0,5
24,0,5
23,0,5
22,-3,7
22,-2,6
22,-2,8
22,-4,6
19,-3,9
18,-3,8
17,1,6
17,2,7
12,-2,6
11,-2,4
9,-1,8
7,-1,2
6,-5,1
3,-5,3
1,-6,1
-1,-4,3
0,-8,5
-1,-4,0
-1,-6,1
-3,-7,1
-2,-5,1
-1,-2,1
-2,-4,0
-3,-2,0
0,-1,-2
-4,-6,1
0,-6,0
0,-3,-1
-2,0,-3
-8,3,0
-16,8,1
-21,10,2
-26,11,4
-34,10,6
-43,12,10
-42,14,12
-36,15,7
-22,13,2
-7,9,0
6,7,-1
18,9,-2
27,7,0
33,4,-1
35,0,0
37,-1,2
36,-3,4
31,-4,8
25,-5,10
18,-7,10
15,-5,12
7,-5,12
1,-2,15
-2,0,16
-7,0,16
-11,2,16
-13,5,18
-16,2,15
-17,7,12
-15,5,11
-14,7,9
-13,7,5
-14,4,4
-5,0,2
-1,0,2
3,-1,0
6,-5,-2
12,-4,-3
18,-5,-7
19,-4,-6
19,-6,-4
15,-6,-5
12,-5,-2
5,-6,-3
0,-5,-4
-7,-4,-1
-13,-5,0
-17,-3,-4
-16,-3,-1
-18,-2,-5
-13,0,-7
-8,0,-12
-3,0,-11
-1,0,-11
2,0,-12
4,-1,-12
2,-2,-10
2,-3,-6
2,-3,-5
3,0,-6
0,-2,-2
0,0,-1
-5,2,-1
-6,4,0
-9,6,-2
-9,5,0
-14,10,1
-13,11,-1
-12,13,-2
-9,11,-2
-10,12,-6
-4,11,-5
-1,11,-9
1,9,-6
6,10,-5
13,7,-1
10,5,-4
12,3,-2
14,-1,0
15,-1,0
15,-5,0
15,-3,2
13,-5,3
12,-6,2
9,-6,3
6,-4,1
1,-4,1
0,-3,-2
-4,2,0
-6,2,-1
-6,2,-3
-12,1,-3
-9,4,-3
-10,4,-6
-7,1,-4
-8,5,-4
-6,0,-4
-2,0,-4
-1,-2,-7
4,-3,-2
3,-5,-3
3,-5,-3
3,-5,-2
1,-3,-1
0,-4,-2
-3,-5,-2
-3,-4,-6
-6,-2,-9
-7,0,-6
-14,5,-10
-21,2,-9
-30,6,-11
-36,8,-8
-42,10,-11
-47,11,-9
-55,13,-7
-51,13,-9
-46,10,-11
-32,11,-15
-18,5,-15
-8,6,-22
2,1,-16
6,0,-20
8,-4,-23
8,-5,-18
2,-8,-15
-6,-9,-12
-19,-8,-10
-28,-10,-10
-39,-8,-6
-48,-7,-9
-57,-10,-6
-68,-3,-3
-73,-4,-2
-76,0,-2
-77,0,0
-76,2,-4
-66,2,-3
-59,4,-5
-52,0,-5
-45,0,-5
-40,2,-4
-35,-3,-7
-30,-3,-7
-26,-4,-4
-28,-8,-5
-23,-11,-3
-22,-14,-4
-19,-13,-4
-22,-16,-5
-24,-14,-6
-24,-16,-5
-27,-15,-6
-28,-16,-5
-32,-15,-5
-30,-15,-7
-30,-10,-6
-29,-10,-5
-21,-8,0
-18,-6,-2
-11,-5,-4
-5,-5,-3
6,-3,-3
11,-1,-6
16,-2,-3
21,-3,-2
24,-4,-3
25,-7,-2
26,-7,-2
25,-8,-2
26,-6,-3
27,-7,-2
22,-1,-2
21,-1,0
17,0,0
12,2,0
13,5,2
10,6,0
7,4,2
7,7,1
4,7,0
3,4,0
3,2,2
4,-1,0
3,-1,3
5,-3,1
4,-4,0
6,-7,0
8,-5,0
6,-5,3
6,-4,1
7,-2,1
6,-1,-1
7,-2,-1
5,-2,-3
4,0,-4
2,0,-3
2,-1,-5
0,0,-6
-2,0,-6
-6,1,-9
-7,0,-9
-11,-3,-9
-10,0,-6
-11,-2,-9
-11,-4,-7
-10,-4,-6
-12,-4,-4
-13,-4,-5
-13,-5,-3
-13,-6,-3
-13,-6,-3
-8,-10,-6
-8,-8,-3
-5,-10,-6
-5,-7,-7
-2,-6,-9
0,-7,-9
4,-7,-8
5,-2,-10
7,-5,-10
10,-3,-11
13,-2,-10
10,2,-11
5,4,-9
-2,4,-7
-6,5,-5
-11,7,-4
-18,6,0
-23,10,6
-24,11,9
-20,14,4
-9,10,11
-2,15,6
6,15,4
17,14,1
27,11,1
36,10,0
37,7,-1
41,5,-3
35,0,1
28,-1,3
21,-4,7
14,-4,8
3,-5,12
-4,-9,12
-9,-6,16
-10,-6,16
-14,-3,15
-15,-2,16
-11,-1,16
-10,-2,17
-7,-5,16
-2,-2,17
-1,-1,12
2,-3,12
6,-7,12
7,-5,9
7,-7,10
6,-5,11
7,-7,8
10,-11,5
9,-11,5
10,-6,2
9,-8,4
11,-5,4
7,-8,5
6,-5,4
7,-1,3
3,-1,3
1,-1,3
0,-1,2
-2,-1,3
-2,2,0
1,1,-2
0,1,-3
5,0,-3
5,1,-8
8,-2,-7
9,-1,-4
12,-4,-6
11,-5,-5
10,-7,-6
10,-7,-6
7,-7,-3
5,-7,-1
3,-5,2
0,-2,0
-2,-3,2
-1,2,5
-5,4,4
-6,4,6
-7,7,3
-7,7,2
-5,6,4
-5,9,0
-2,5,-1
0,7,3
5,3,4
3,3,2
7,2,0
9,0,4
12,-1,3
13,-1,6
13,-1,8
11,0,7
10,-3,5
11,2,7
8,-1,6
11,1,3
10,-1,5
8,2,5
6,1,5
8,1,4
4,0,4
5,1,5
6,0,2
1,-1,6
0,1,6
3,1,6
1,-1,5
0,-1,2
0,-3,4
-2,0,5
-2,0,4
-1,-2,3
0,-1,4
-1,-2,0
-1,-3,0
0,-4,-1
2,-4,0
0,-4,-2
5,-7,-3
6,-8,-4
8,-7,-4
8,-6,-2
9,-4,-2
11,-6,0
11,-6,0
9,-2,0
10,0,0
2,2,0
-2,1,-1
-7,3,4
-12,5,4
-16,7,4
-23,6,2
-24,8,5
-24,8,1
-13,5,4
-5,9,1
7,9,-1
20,11,-4
29,10,-5
37,8,-7
41,5,-5
43,3,-5
40,-2,-2
37,-4,1
28,-5,2
22,-5,6
13,-6,10
7,-6,10
0,-7,12
-8,-8,15
-9,-8,15
-12,-7,14
-10,-6,16
-10,-7,13
-10,-6,10
-8,-5,7
-4,-5,3
-2,-4,2
1,-8,1
2,-11,0
2,-6,-5
2,-6,-1
0,-6,-4
-3,-6,-1
-3,-8,-4
-3,-7,-5
-2,-5,-5
-1,-6,-3
-7,-7,-1
-6,-12,0
-7,-12,0
-5,-14,1
-7,-15,0
-5,-16,1
-2,-14,0
-1,-19,1
1,-17,-1
9,-18,-3
13,-18,-6
17,-18,-4
17,-15,-7
18,-15,-4
20,-15,-4
18,-14,-4
17,-13,0
15,-13,-3
15,-11,4
12,-9,4
9,-5,0
6,-4,3
6,-4,4
1,0,6
0,2,4
0,3,4
0,3,6
3,4,5
6,1,6
4,0,5
7,2,3
8,1,5
11,0,5
11,-2,7
17,-4,6
15,-3,6
15,-5,8
16,-4,7
17,-3,5
20,-3,8
18,-4,4
15,-4,7
15,-1,6
15,0,4
11,-4,6
8,-3,2
8,-1,3
7,-3,1
5,-5,2
3,-4,0
1,-5,0
1,-5,1
-3,-9,0
-2,-2,4
-3,-5,2
-4,-6,-1
-4,-7,2
-5,-6,1
-3,-7,3
-3,-7,2
-6,-6,2
-9,-4,3
-7,-6,4
-8,-7,4
-11,-7,2
-10,-6,0
-11,-5,0
-7,-7,-1
-6,-3,2
-4,-4,1
0,0,-1
3,0,-1
6,-2,0
9,-2,0
14,1,0
16,2,0
14,3,1
8,4,-1
4,5,3
-1,3,4
-8,2,8
-17,3,11
-25,1,10
-22,1,12
-13,1,8
1,1,7
13,3,1
28,1,0
39,1,-2
48,0,-3
50,-2,-1
55,-4,-1
51,-10,2
48,-11,7
39,-13,9
29,-15,15
19,-14,17
11,-13,21
5,-10,24
-3,-4,23
-6,-1,23
-10,5,21
-10,9,18
-11,10,14
-10,15,13
-9,12,8
-8,10,5
-6,7,0
-3,3,-2
-4,2,-1
-5,-5,-2
-2,-7,-2
3,-15,-3
7,-18,-1
9,-21,2
9,-17,-2
9,-18,0
5,-17,0
7,-17,3
5,-15,1
0,-11,3
-3,-9,4
-6,-13,7
-7,-8,5
-8,-7,0
-7,-6,1
-2,-6,-3
0,-5,-3
1,-5,-5
8,-6,-7
11,-6,-5
13,-9,-5
13,-8,-5
12,-9,-3
14,-6,-1
13,-6,2
11,-7,7
11,-3,7
10,-6,8
10,-3,11
12,-3,9
9,-5,11
11,-2,10
16,0,10
16,0,10
17,0,7
25,-1,10
24,-4,6
29,-6,7
27,-7,8
29,-10,5
31,-11,5
31,-10,6
29,-16,5
30,-15,5
28,-13,7
25,-15,7
23,-16,9
23,-15,7
17,-13,6
17,-11,6
10,-11,7
9,-10,5
7,-9,3
2,-8,6
2,-3,7
4,-3,4
-5,-3,2
-9,-2,1
-6,-3,2
-6,-5,7
-6,-4,3
-9,-1,3
-5,-2,3
-3,-6,0
-4,-2,4
-1,-6,8
-5,-5,6
-2,-2,4
-1,-3,4
0,-1,6
6,0,3
5,1,4
6,1,2
11,2,3
11,4,3
14,6,0
19,6,0
24,10,-4
22,12,-2
17,10,-5
14,11,0
0,9,2
-8,9,2
-15,5,8
-23,6,10
-18,2,12
-10,4,9
4,2,7
20,2,-1
35,3,0
42,3,-2
49,0,0
48,0,0
48,-2,-1
44,-4,2
38,-6,3
32,-8,7
21,-6,9
15,-5,11
7,1,14
0,2,14
-7,8,14
-12,10,13
-18,13,13
-19,15,10
-19,16,8
-19,12,8
-17,11,6
-15,9,4
-13,5,2
-7,0,4
-5,-6,4
0,-7,3
3,-7,6
8,-4,8
11,-2,5
13,3,4
12,8,1
13,12,0
11,19,2
5,21,-3
2,19,-2
1,19,-4
-2,13,-3
-7,10,-4
-8,3,-2
-11,-1,-4
-2,-9,1
-2,-10,-4
6,-16,2
10,-19,5
14,-18,3
15,-21,9
19,-18,13
24,-18,11
26,-16,13
28,-15,14
24,-15,15
24,-12,13
23,-10,14
20,-2,9
18,0,11
17,1,10
11,2,10
12,3,10
10,4,4
11,4,7
12,4,4
12,3,6
17,0,5
18,-2,6
16,-2,5
20,-1,5
20,-4,5
22,-6,6
21,-7,5
17,-8,3
15,-9,3
14,-6,1
10,-10,4
7,-8,1
4,-8,1
1,-9,-1
-1,-8,2
-6,-6,2
-8,-4,0
-8,-2,-2
-11,-7,3
-11,-5,4
-12,-4,1
-12,-6,0
-11,-6,1
-13,-3,2
-11,-2,-1
-11,-5,2
-11,-3,4
-4,-3,0
-1,-5,1
-1,-6,1
-1,-4,2
3,-4,4
2,-7,5
0,-6,7
3,-5,7
8,-6,7
9,-7,3
16,-5,3
15,5,3
11,6,2
8,10,4
7,9,8
1,10,9
-4,6,11
-10,2,14
-8,2,16
1,-1,11
10,-6,9
22,-9,4
33,-5,4
39,-7,4
45,-6,6
46,-1,4
44,1,6
40,4,4
37,8,6
33,7,7
21,11,8
14,15,11
4,14,9
-4,18,9
-12,20,7
-22,22,9
-33,23,8
-33,22,5
-40,21,5
-41,20,4
-43,15,0
-43,13,2
-38,7,1
-33,6,-1
-27,-2,-4
-21,-8,-1
-17,-9,-1
-11,-13,-4
-3,-18,-4
0,-19,-5
3,-20,-5
4,-16,-4
6,-15,-7
1,-16,-6
-3,-10,-6
-1,-9,-3
-10,-7,-1
-11,0,-5
-10,-3,-3
-8,0,-2
-5,1,-4
1,1,-5
9,0,-5
17,-3,-7
23,-3,-6
22,-5,-4
26,-12,-2
28,-9,-2
25,-7,0
21,-8,0
19,-6,-1
17,-6,3
16,-2,3
11,4,3
6,6,4
4,11,2
1,12,3
2,12,0
0,14,3
0,15,0
-2,13,0
0,9,-1
1,8,-3
-1,2,-3
2,1,-2
2,-2,-1
2,-3,-3
4,-7,-1
3,-6,-2
6,-8,0
5,-8,0
2,-6,1
2,-7,1
1,-5,0
4,-3,0
5,-3,0
5,-2,-1
3,-1,-3
2,-2,-1
3,-1,0
1,0,-2
0,0,-1
0,-1,-4
-2,-3,-3
-1,-3,-6
-3,-1,-7
-3,-5,-4
-2,-5,-3
-1,-7,-6
-3,-6,-3
-3,-5,-5
-5,-3,-2
-4,-1,-3
-7,-1,-2
-6,0,-3
-4,0,-6
-3,1,-4
-2,6,-6
-2,7,-9
-3,9,-8
-11,10,-5
-13,9,-3
-18,9,0
-26,8,3
-33,4,5
-36,5,7
-28,3,4
-17,6,3
-2,0,-1
5,2,-3
14,0,-6
20,4,-6
22,2,-4
22,4,-5
24,5,-5
18,4,-5
15,2,1
11,3,2
3,8,3
-4,9,6
-9,13,7
-10,17,7
-10,21,6
-10,32,4
-7,36,3
-6,43,0
-11,45,0
-11,46,-4
-12,44,-4
-12,41,-5
-15,37,-7
-16,34,-6
-18,26,-12
-21,17,-11
-19,11,-8
-17,5,-9
-17,1,-8
-12,-5,-13
-9,-8,-11
-5,-9,-8
-5,-10,-7
-2,-13,-2
-4,-10,-2
-2,-11,0
-6,-9,1
-10,-7,8
-17,-4,9
-15,-2,14
-17,3,9
-13,5,10
-10,3,6
-6,6,3
0,6,-2
5,4,0
7,2,-6
11,0,-4
11,0,-6
15,-1,-6
15,-5,-8
17,-3,-4
17,-6,1
14,-3,0
13,-3,2
11,-4,6
9,-2,7
9,0,7
5,3,10
2,6,7
1,4,6
0,6,5
-4,10,4
-1,6,3
-2,9,0
-4,7,-1
-4,5,-2
-5,0,-3
-2,0,-8
-2,-4,-7
-5,-5,-4
-4,-9,-6
-5,-9,-6
-7,-12,-3
-5,-12,-3
-4,-12,-1
-5,-12,-3
-1,-9,1
-2,-6,3
-2,-6,2
-1,-2,2
-2,0,0
-6,2,1
-4,4,1
-1,6,-1
0,5,-3
-1,7,-3
-1,5,-5
0,3,-7
1,8,-8
1,4,-11
2,6,-10
4,4,-9
3,4,-8
6,1,-6
7,-2,-7
9,-3,-5
9,0,-1
8,-1,0
0,2,2
-5,0,4
-11,0,2
-15,0,5
-25,5,4
-30,7,7
-33,5,8
-27,7,9
-18,10,2
-5,9,0
7,12,-4
22,13,-9
28,10,-9
31,10,-9
34,8,-10
33,5,-9
32,4,-8
27,3,-3
23,0,0
15,1,0
12,-1,2
9,-1,8
5,-4,10
0,-3,9
0,-1,12
-5,-1,12
-9,0,10
-10,2,10
-13,2,6
-12,0,5
-12,1,3
-11,2,3
-13,1,0
-11,0,0
-11,-3,0
-11,-2,-1
-7,-8,-1
-6,-8,-1
-4,-8,-6
0,-10,0
0,-13,1
-1,-13,1
0,-14,2
0,-14,4
-3,-12,0
-8,-12,3
-8,-9,4
-14,-9,1
-13,-9,2
-12,-8,-4
-9,-5,-1
-10,-1,-8
-6,-3,-11
0,0,-11
2,2,-13
1,-3,-15
5,-1,-13
5,-3,-12
7,-5,-12
10,-6,-13
9,-6,-11
12,-9,-4
6,-5,-8
4,-5,-6
2,-4,-5
-2,-1,0
-6,1,-1
-6,0,0
-11,3,-1
-15,4,-1
-15,6,-3
-17,7,-3
-15,8,-4
-17,7,-1
-16,5,-4
-17,5,-4
-15,5,-3
-13,3,-4
-10,2,0
-10,3,-5
-7,3,-5
-5,3,-1
-6,0,-3
2,0,-2
1,3,-3
3,3,-5
4,1,-3
4,1,-3
4,3,-1
6,3,-3
5,3,-4
3,3,-3
4,3,-1
1,7,-7
1,8,-6
-3,6,-5
-4,6,-8
-9,7,-6
-10,9,-6
-13,9,-8
-15,10,-11
-18,11,-13
-17,12,-11
-21,13,-11
-20,12,-12
-21,14,-14
-17,10,-15
-14,9,-14
-9,9,-13
-6,11,-15
-4,11,-13
-7,9,-10
-7,7,-9
-10,7,-7
-11,4,-9
-17,7,-3
-24,5,0
-19,4,3
-17,3,0
-8,4,0
0,3,-1
10,2,-2
16,9,-6
25,10,-10
33,2,-10
33,2,-11
33,1,-11
31,4,-10
24,1,-8
16,0,-5
8,-1,-1
3,-2,0
-6,-1,1
-12,-4,5
-15,-1,6
-19,-3,7
-20,-1,9
-18,-5,8
-16,-1,7
-15,-3,7
-10,-4,5
-6,-3,6
-9,-6,4
-4,-6,5
-3,-3,1
-3,-6,-2
-1,-7,0
-2,-6,-1
-1,-7,-3
0,-5,-2
0,-7,-4
-1,-9,-2
-2,-9,-4
-4,-6,-3
-8,-7,-3
-7,-7,-4
-8,-5,-2
-9,-8,-2
-13,-5,0
-12,-9,-5
-9,-3,-3
-8,-3,-7
-4,-1,-6
-1,-3,-8
0,-2,-11
2,-3,-10
5,-6,-12
2,-9,-13
7,-8,-13
3,-5,-14
4,-6,-15
0,-5,-12
0,-6,-9
0,-4,-11
-7,-5,-6
-9,-3,-6
-9,-3,-5
-12,-2,-6
-16,-1,-7
-18,0,-6
-21,0,-8
-20,3,-7
-19,5,-8
-19,5,-7
-22,12,-9
-21,11,-8
-19,11,-7
-20,12,-5
-17,10,-7
-15,10,-8
-12,9,-7
-10,6,-5
-9,2,-6
-6,1,-6
-3,-1,-2
-1,-3,-1
0,-1,-1
1,-4,1
2,-4,1
0,-3,0
1,0,2
-1,0,0
-1,3,2
-1,0,2
-1,2,4
0,1,3
-1,3,1
0,0,0
2,-1,0
4,0,-3
4,-2,-1
4,-6,-3
8,-8,-3
8,-8,-1
8,-7,-2
11,-7,-3
11,-7,-1
11,-6,-1
11,-6,0
12,-7,0
10,-5,0
12,-4,1
12,0,0
14,1,0
7,2,2
0,4,4
-7,3,2
-8,2,4
-14,4,7
-20,5,4
-19,6,9
-14,5,8
-11,3,9
0,6,3
12,7,3
22,7,-4
31,7,-3
38,8,-7
44,3,-8
44,-2,-8
42,-6,-4
36,-2,-4
29,-9,0
21,-8,2
11,-7,6
3,-5,9
-2,-7,12
-8,-6,15
-9,-5,16
-10,-1,17
-13,0,15
-12,-1,13
-11,-2,12
-10,0,9
-7,0,7
-5,-3,5
0,-2,0
-1,1,3
-1,-3,-3
0,-4,-1
1,-5,0
1,-4,-4
2,-3,-4
2,-7,-1
0,-5,-2
-1,-1,-2
-5,-1,0
-6,-5,0
-6,-5,1
-9,-7,1
-6,-9,0
-10,-7,1
-9,-8,0
-8,-14,0
-2,-11,-2
0,-10,-5
4,-9,-9
9,-12,-6
13,-12,-4
13,-10,-9
14,-10,-8
16,-10,-8
13,-10,-5
11,-10,-4
11,-8,-1
5,-7,-1
4,-7,-3
0,-4,3
1,0,4
1,-2,7
-1,0,5
-3,1,4
-1,1,7
1,0,9
0,4,8
4,6,6
2,6,7
7,4,6
8,6,3
9,4,7
11,4,9
14,3,9
14,2,8
17,-1,12
19,-2,9
16,-2,10
17,-6,9
17,-3,8
15,-7,9
18,-6,7
16,-5,5
17,-3,5
14,-6,6
16,-4,6
13,-6,2
7,-5,0
9,-7,2
8,-4,1
5,-7,0
0,-7,2
0,-7,1
0,-8,0
-2,-8,1
-5,-10,-2
-7,-9,-1
-4,-10,-4
-4,-15,-5
-4,-13,-3
-4,-13,-2
0,-14,-4
-2,-14,-2
2,-15,0
0,-15,-1
2,-14,-1
4,-13,2
6,-11,0
9,-12,0
6,-7,-2
1,-4,-2
-1,-1,0
-7,2,0
-15,0,-1
-20,1,0
-24,-1,5
-28,1,6
-29,1,6
-20,0,6
-12,0,4
6,0,3
15,2,3
32,0,0
44,-2,3
48,-3,2
52,-4,9
50,-7,8
47,-11,9
40,-14,13
33,-9,15
24,-9,18
17,-9,23
9,-5,24
3,-4,25
-1,0,22
-4,2,23
-6,2,20
-5,5,18
-7,7,12
-7,7,12
-8,5,6
-4,3,4
-2,3,0
-3,0,1
0,-4,0
3,-9,0
1,-12,-1
6,-14,-5
7,-15,-1
12,-21,-1
10,-22,0
10,-17,-3
6,-21,-1
7,-21,-2
3,-20,-2
0,-21,-1
-5,-19,0
-8,-20,0
-11,-15,1
-11,-14,-2
-6,-14,-2
-1,-11,-5
1,-13,-8
4,-10,-4
7,-8,-7
9,-8,-5
11,-9,-7
11,-8,-4
9,-5,-4
8,-4,-2
10,-3,-1
8,-2,1
5,1,2
4,3,4
2,6,4
0,6,8
0,9,6
4,8,8
2,10,10
4,10,8
7,10,6
8,9,2
13,7,6
12,7,2
16,6,3
16,0,1
17,0,4
18,0,3
20,-2,1
21,-2,6
21,-3,4
20,-5,8
19,-6,7
20,-8,9
19,-7,7
18,-8,7
15,-7,3
17,-8,7
13,-6,3
14,-6,-1
13,-5,0
12,-4,2
11,-3,0
10,-4,1
8,-3,2
6,-2,1
7,-3,0
6,-5,4
4,-6,3
6,-7,2
3,-5,3
3,-1,3
7,-5,4
8,-4,2
14,-3,1
13,-4,3
17,-2,4
22,-2,1
25,1,1
30,1,4
30,5,0
33,7,-2
33,9,-3
27,13,-1
18,12,0
9,9,3
-3,6,7
-16,4,11
-22,2,17
-24,2,19
-15,0,16
-4,0,14
8,-4,14
19,2,15
29,2,13
39,1,16
40,-3,17
42,-4,20
40,-9,24
39,-12,24
34,-17,21
27,-19,23
24,-18,27
15,-19,23
6,-20,28
2,-15,24
-3,-14,21
-5,-10,18
-10,-11,11
-9,-6,12
-11,-5,7
-12,-2,6
-11,-2,1
-9,-3,0
-8,-2,-1
-6,-5,0
-5,-5,0
-4,-8,0
-4,-9,-2
0,-17,-5
1,-14,-6
3,-13,-5
1,-18,-5
-3,-21,-4
-7,-18,-5
-8,-21,-6
-14,-19,-3
-22,-19,-2
-24,-18,-4
-24,-18,0
-27,-14,-3
-21,-15,-4
-17,-8,-7
-13,-7,-7
-9,-6,-8
-7,-2,-7
-2,-4,-8
2,-3,-8
7,-1,-6
9,-1,-6
7,-1,-4
5,0,-2
5,0,-1
6,4,-1
6,6,0
8,6,0
6,9,0
5,9,1
7,11,3
7,12,1
8,13,2
11,10,2
12,10,0
16,9,1
16,6,3
19,5,4
17,4,1
17,1,4
19,0,7
18,-2,7
17,-4,6
18,-4,9
18,-4,8
15,-5,10
14,-2,8
14,0,8
14,-1,7
14,0,6
9,0,3
9,2,2
6,1,2
6,3,2
1,0,1
3,0,2
1,0,1
3,-3,3
0,-3,3
0,-5,4
1,-5,3
-2,-7,1
-1,-6,3
-1,-7,6
4,-9,4
2,-5,5
1,-5,5
3,-8,3
4,-5,3
7,-5,1
5,-4,-4
13,-2,-3
7,1,-6
1,1,-7
-5,4,-2
-13,5,-4
-21,4,-3
-31,4,0
-42,1,1
-46,1,2
-39,2,1
-29,2,3
-19,2,0
-6,3,-3
3,4,-1
10,6,-2
18,8,-2
19,8,-4
21,4,0
18,3,0
13,1,-2
9,-1,4
1,0,2
-2,0,6
-5,1,4
-10,6,6
-13,7,5
-16,8,5
-16,12,6
-14,10,7
-13,13,5
-13,11,6
-11,10,1
-7,8,1
-5,5,-1
-1,1,1
-1,-1,-1
4,-7,-2
8,-10,0
8,-14,-1
13,-18,-2
14,-19,-2
14,-20,-1
14,-22,-1
12,-16,-1
6,-15,0
0,-13,0
-5,-14,1
-6,-12,4
-10,-12,3
-12,-9,3
-7,-8,0
-1,-4,1
0,-3,-2
2,-1,-3
7,0,-8
12,0,-7
12,0,-6
13,0,-2
13,-1,-3
7,3,-1
8,1,-1
4,5,0
3,2,3
-1,4,4
-1,5,6
-2,8,6
-4,10,4
-3,10,4
-4,12,2
-5,14,2
0,12,2
1,13,0
3,11,0
3,7,-2
8,7,0
8,9,-3
12,4,-4
12,4,-3
11,3,-4
12,-2,0
9,-2,2
8,-1,1
6,-5,0
6,-7,2
4,-7,2
6,-5,1
5,-3,3
3,-5,5
4,-2,0
2,-4,2
2,-2,0
4,-4,1
-2,-4,0
0,-1,-2
-3,-3,-1
-1,-8,-4
-2,-3,-3
-1,-7,-3
-2,-8,-3
0,-10,-5
2,-8,0
0,-5,-1
3,-9,0
4,-8,0
3,-6,0
8,-5,0
8,-2,1
8,2,0
6,3,-1
0,4,0
-4,7,3
-9,8,4
-17,9,5
-25,10,8
-23,9,5
-14,9,5
-5,5,0
9,4,-4
21,4,-7
27,6,-5
34,5,-6
36,1,0
34,2,-2
37,-1,4
34,-4,7
28,-5,10
21,-5,13
15,-2,16
10,-1,16
5,-3,18
-1,3,18
-5,5,18
-10,8,17
-10,7,14
-12,12,12
-13,8,8
-14,10,6
-13,7,0
-8,8,0
-5,4,-2
-4,0,-5
-3,-4,-6
2,-6,-3
1,-13,-2
8,-18,-4
11,-18,-3
9,-20,-2
15,-19,1
10,-19,2
8,-16,3
6,-13,4
3,-16,6
1,-8,5
-3,-6,3
-8,-5,4
-11,-2,4
-8,1,2
-5,6,0
2,8,-1
6,9,1
13,14,-1
13,10,1
16,15,3
18,14,5
21,12,9
22,15,12
19,12,14
19,11,19
18,12,21
12,15,22
8,15,24
7,16,25
4,19,23
-2,15,22
1,19,19
2,18,17
0,18,5
2,16,8
8,16,8
10,13,0
15,14,1
18,9,0
22,6,0
24,2,0
26,-3,0
26,-3,1
26,-2,7
26,-4,2
23,-4,5
19,-7,8
21,-8,9
18,-4,5
17,0,4
17,-1,8
10,1,3
8,2,4
3,0,-3
1,2,-3
0,0,-7
-2,0,-8
-6,0,-9
-5,-2,-11
-6,-4,-10
-6,-5,-10
-8,-5,-14
-9,-6,-13
-7,-8,-9
-12,-7,-8
-5,-9,-6
-8,-7,-5
-3,-9,-3
0,-5,-1
2,-2,-1
2,5,0
-2,6,4
-4,8,2
-5,10,1
-11,13,5
-18,16,9
-18,18,10
-17,17,9
-6,15,5
6,15,1
23,15,0
38,15,-3
48,14,-2
52,14,-4
54,7,-6
61,6,-4
58,2,-5
51,3,-2
45,-1,1
37,-1,4
24,-3,5
15,-2,8
7,-1,13
-3,-1,12
-8,1,14
-13,1,11
-17,3,13
-15,0,14
-13,2,12
-10,2,12
-7,1,10
-1,0,7
3,-2,7
9,-4,7
13,-3,4
11,-8,1
17,-11,3
