78896
78865
78884
78865
78879
78867
78881
78884
78879
78877
78887
78866
78787
78717
78665
78681
78679
78673
78670
78693
78696
78717
78735
78744
78718
78727
78737
78745
78749
78749
78753
78759
78774
78734
78671
78598
78547
78542
78548
78568
78567
78593
78611
78610
78626
78617
78633
78634
78628
78642
78631
78662
78669
78648
78647
78603
78526
78462
78425
78436
78426
78423
78438
78443
78503
78508
78506
78520
78530
78528
78529
78541
78566
78555
78586
78561
78566
78565
78476
78388
78357
78338
78364
78373
78364
78390
78422
78410
78439
78459
78467
78456
78484
78473
78500
78510
78504
78512
78522
78522
78485
78395
78337
78297
78297
78302
78318
78341
78365
78391
78399
78425
78420
78438
78432
78425
78444
78436
78449
78456
78453
78449
78474
78439
78375
78307
78256
78218
78218
78232
78244
78247
78271
78291
78298
78309
78322
78311
78319
78312
78337
78338
78342
78350
78370
78364
78378
78324
78239
78192
78151
78155
78136
78145
78171
78211
78217
78232
78236
78224
78245
78258
78280
78293
78273
78286
78277
78284
78279
78231
78199
78108
78053
77986
77988
77961
77992
78023
78036
78052
78090
78105
78097
78091
78097
78115
78112
78129
78124
78132
78136
78132
78109
78055
77938
77893
77872
77874
77891
77877
77902
77933
77957
77972
77994
77990
77995
78016
78045
78041
78043
78074
78086
78100
78107
78066
77991
77918
77889
77871
77885
77886
77908
77934
77951
77974
77986
78008
78023
78010
78022
78048
78029
78051
78074
78068
78092
78090
78038
77958
77890
77846
77843
77833
77868
77865
77869
77883
77904
77935
77945
77946
77938
77958
77968
77970
77989
77964
77996
78016
77996
78007
77912
77854
77801
77792
77817
77805
77815
77845
77878
77870
77878
77896
77904
77926
77936
77957
77972
77992
77989
78008
78015
78010
78033
77998
77908
77840
77791
77788
77781
77812
77818
77863
77889
77909
77932
77956
77957
77941
77948
77954
77960
77996
78006
77993
77996
78020
78028
77967
77881
77827
77819
77844
77853
77887
77909
77954
77955
77979
77988
78008
77999
77993
78003
78016
78044
78031
78055
78069
78092
78123
78042
77981
77915
77919
77886
77899
77932
77930
77956
77975
78010
78034
78055
78065
78076
78109
78139
78142
78181
78210
78222
78233
78233
78158
78118
78079
78089
78120
78131
78146
78200
78236
78245
78295
78319
78359
78354
78385
78405
78423
78454
78467
78478
78501
78506
78487
78420
78361
78324
78324
78320
78337
78344
78372
78384
78416
78430
78472
78487
78482
78467
78508
78482
78510
78528
78526
78541
78542
78517
78441
78336
78329
78300
78306
78322
78331
78336
78380
78377
78401
78423
78410
78415
78409
78411
78423
78448
78436
78459
78447
78478
78464
78430
78344
78290
78243
78246
78230
78249
78267
78278
78317
78317
78318
78305
78309
78314
78326
78344
78319
78340
78340
78359
78354
78368
78351
78302
78217
78168
78140
78140
78161
78162
78187
78212
78236
78263
78263
78279
78271
78281
78291
78292
78313
78327
78327
78361
78346
78349
78308
78239
78151
78132
78102
78135
78133
78173
78195
78216
78238
78247
78244
78240
78263
78261
78270
78283
78291
78297
78316
78303
78299
78260
78166
78094
78052
78043
78065
78060
78092
78105
78131
78159
78150
78159
78161
78154
78187
78186
78179
78201
78197
78231
78247
78229
78183
78106
78069
78018
78013
78016
78063
78060
78093
78110
78151
78139
78143
78149
78145
78151
78162
78157
78170
78181
78199
78201
78167
78108
78031
77972
77948
77941
77945
77959
77970
77988
78025
78037
78060
78063
78067
78061
78063
78077
78093
78099
78131
78112
78125
78126
78070
77976
77921
77898
77884
77887
77905
77908
77941
77949
77968
77999
78001
78007
78024
78013
78022
78035
78031
78039
78046
78041
78046
78026
77936
77856
77794
77770
77760
77760
77746
77752
77796
77798
77829
77805
77801
77809
77792
77792
77800
77811
77787
77802
77811
77807
77802
77793
77730
77632
77589
77572
77576
77610
77669
77696
77725
77756
77771
77799
77813
77805
77830
77832
77833
77852
77858
77867
77870
77894
77917
77941
77896
77829
77774
77746
77767
77769
77795
77817
77854
77906
77920
77940
77928
77951
77956
77972
77985
77996
78019
78016
78035
78044
78045
78024
77980
77919
77866
77863
77852
77858
77883
77887
77930
77940
77969
77982
77984
77990
78013
78007
78003
78022
78034
78029
78044
78078
78111
78109
78089
78061
78081
78073
78108
78123
78132
78163
78195
78209
78219
78242
78263
78245
78260
78271
78289
78288
78293
78316
78321
78300
78261
78169
78133
78073
78075
78082
78087
78096
78109
78148
78149
78162
78166
78174
78173
78185
78203
78201
78205
78217
78195
78221
78221
78213
78148
78042
78019
77986
77999
77998
78016
78026
78040
78042
78046
78060
78074
78084
78062
78044
78039
78051
78031
78028
78019
78020
78037
78038
77994
77904
77843
77815
77787
77785
77773
77815
77814
77826
77844
77865
77836
77846
77854
77854
77848
77864
77854
77847
77853
77875
77867
77880
77844
77798
77700
77626
77619
77607
77612
77607
77617
77647
77655
77679
77700
77711
77691
77690
77704
77709
77707
77723
77729
77723
77743
77746
77741
77742
77659
77603
77522
77527
77515
77529
77566
77596
77588
77621
77650
77649
77663
77658
77653
77678
77656
77700
77691
77722
77724
77747
77741
77742
77702
77620
77565
77528
77507
77527
77538
77571
77624
77632
77654
77660
77676
77696
77700
77698
77724
77759
77745
77758
77781
77768
77761
77766
77728
77641
77576
77543
77533
77554
77562
77578
77603
77620
77625
77637
77636
77635
77642
77650
77661
77664
77675
77677
77674
77681
77686
77657
77593
77538
77468
77453
77453
77481
77506
77521
77531
77560
77580
77582
77582
77582
77606
77610
77627
77631
77637
77648
77645
77656
77662
77586
77522
77440
77431
77415
77441
77442
77480
77505
77530
77554
77541
77563
77574
77566
77575
77591
77617
77613
77611
77641
77655
77631
77614
77567
77471
77417
77410
77411
77440
77422
77434
77480
77495
77526
77526
77551
77542
77544
77546
77569
77568
77593
77579
77622
77613
77611
77599
77577
77487
77428
77385
77364
77385
77387
77399
77400
77445
77463
77460
77474
77496
77490
77477
77512
77504
77515
77508
77528
77554
77538
77556
77560
77537
77486
77387
77352
77301
77337
77313
77327
77347
77368
77406
77446
77447
77459
77442
77453
77461
77453
77480
77485
77492
77493
77500
77512
77510
77524
77485
77395
77320
77303
77280
77293
77314
77318
77330
77370
77388
77402
77432
77415
77427
77439
77452
77438
77440
77450
77464
77467
77488
77498
77493
77457
77397
77308
77244
77253
77239
77236
77284
77303
77314
77332
77359
77375
77366
77362
77374
77385
77404
77404
77416
77424
77456
77457
77461
77455
77414
77319
77224
77196
77179
77189
77209
77214
77235
77268
77295
77313
77303
77304
77330
77328
77357
77348
77351
77366
77390
77369
77392
77404
77356
77263
77180
77121
77123
77129
77118
77142
77156
77191
77209
77233
77232
77244
77242
77236
77251
77254
77256
77273
77264
77282
77272
77284
77244
77183
77078
77039
77038
77028
77036
77065
77078
77096
77132
77127
77150
77142
77160
77149
77158
77142
77166
77173
77164
77178
77168
77179
77174
77094
77004
76944
76917
76915
76930
76909
76943
76960
76985
76993
76999
77025
77026
77028
77051
77047
77030
77059
77061
77059
77064
77094
77069
77056
76987
76906
76827
76811
76795
76795
76793
76805
76831
76858
76881
76901
76916
76916
76910
76923
76941
76945
76962
76927
76959
76961
76980
76990
76996
76977
76911
76812
76786
76762
76747
76781
76780
76804
76840
76832
76885
76906
76920
76926
76915
76929
76937
76959
76943
76976
76979
76995
77005
77013
77041
76993
76912
76823
76769
76759
76756
76787
76800
76821
76862
76862
76922
76920
76933
76923
76932
76933
76928
76933
76964
76951
76960
76992
76990
76989
76952
76867
76797
76728
76726
76717
76758
76754
76781
76819
76842
76864
76875
76886
76893
76904
76891
76925
76941
76930
76946
76957
76957
76970
76951
76886
76812
76724
76711
76704
76693
76710
76736
76766
76788
76818
76830
76821
76842
76846
76860
76870
76883
76885
76892
76891
76898
76919
76914
76848
76731
76668
76648
76637
76642
76658
76681
76715
76735
76768
76774
76782
76784
76804
76828
76837
76831
76835
76842
76867
76865
76879
76870
76844
76756
76680
76643
76625
76655
76653
76676
76692
76722
76754
76772
76799
76819
76822
76809
76818
76828
76857
76865
76860
76860
76876
76900
76875
76843
76736
76674
76643
76639
76658
76663
76679
76716
76739
76752
76788
76797
76809
76815
76797
76809
76816
76817
76850
76840
76849
76869
76871
76875
76831
76738
76671
76616
76609
76623
76654
76680
76676
76711
76732
76767
76770
76777
76784
76802
76805
76806
76818
76819
76841
76835
76859
76846
76857
76872
76816
76725
76646
76600
76562
76574
76593
76576
76603
76636
76677
76667
76700
76672
76690
76675
76692
76693
76675
76679
76695
76704
76680
76695
76709
76692
76707
76593
76527
76479
76453
76451
76452
76464
76504
76502
76537
76572
76587
76600
76613
76591
76618
76624
76612
76628
76624
76650
76630
76643
76638
76653
76617
76541
76477
76422
76397
76425
76442
76464
76488
76509
76558
76585
76589
76597
76609
76641
76638
76656
76672
76688
76697
76696
76713
76753
76783
76755
76680
76614
76550
76541
76497
76660
76988
76850
77090
77341
77738
77551
77416
77194
77079
77090
77271
77367
77510
77682
77681
76908
76921
74863
72794
72736
73054
72687
72807
73094
73346
73504
73439
73217
72838
72293
71910
73695
74439
75505
76702
77467
78164
78287
77105
76378
77394
77929
78223
78458
78458
78469
78399
78887
74018
73587
73915
73985
74231
74508
74734
74987
75184
75367
75511
75659
75784
76014
76105
76279
76489
76653
76748
76694
76682
76866
76963
76865
76772
76754
76697
76701
76667
76658
76747
76831
76870
76869
76911
76912
76941
76972
76978
77002
77033
77057
77006
76927
76851
76768
76734
76761
76784
76806
76835
76851
76891
76928
76933
76942
76967
76971
76991
76983
76984
76973
76976
76982
77008
76945
76897
76751
76651
76650
76685
76707
76781
76816
76908
76960
77002
77085
77156
77210
77296
77354
77402
77453
77496
77520
77561
77628
77664
77675
77685
77654
77614
77615
77643
77671
77718
77780
77827
77892
77932
78006
78055
78087
78109
78122
78141
78173
78164
78197
78209
78226
78268
78281
78269
78209
78150
78123
78111
78140
78147
78188
78209
78228
78281
78317
78348
78354
78370
78363
78391
78400
78419
78435
78402
78419
78468
78464
78458
78397
78356
78294
78279
78294
78299
78321
78350
78372
78390
78438
78434
78456
78463
78472
78476
78492
78505
78501
78523
78518
78535
78562
78520
78465
78433
78389
78373
78372
78396
78406
78432
78465
78474
78505
78507
78508
78536
78534
78539
78540
78521
78551
78583
78563
78563
78576
78542
78493
78427
78397
78408
78383
78399
78418
78425
78436
78471
78497
78500
78538
78517
78522
78509
78536
78547
78550
78541
78551
78558
78555
78545
78494
78415
78370
78360
78336
78347
78333
78358
78372
78402
78409
78425
78442
78442
78448
78455
78480
78485
78458
78495
78513
78512
78524
78539
78522
78503
78437
78386
78333
78320
78327
78338
78359
78399
78433
78443
78473
78489
78491
78500
78480
78491
78490
78481
78480
78461
78473
78485
78502
78491
78503
78488
78434
78370
78309
78300
78278
78288
78287
78308
78320
78357
78390
78383
78407
78408
78411
78427
78443
78436
78453
78456
78455
78476
78497
78466
78482
78482
78425
78346
78299
78265
78260
78287
78301
78316
78341
78366
78370
78388
78380
78398
78404
78416
78414
78422
78420
78438
78444
78427
78443
78443
78454
78401
78336
78281
78241
78229
78239
78264
78271
78292
78291
78337
78360
78381
78368
78396
78396
78417
78425
78411
78457
78445
78460
78482
78486
78467
78429
78374
78307
78294
78295
78298
78303
78337
78344
78379
78393
78407
78428
78451
78431
78460
78469
78479
78489
78480
78479
78481
78505
78512
78489
78436
78385
78338
78312
78309
78315
78336
78354
78377
78399
78430
78425
78441
78466
78454
78455
78486
78475
78485
78519
78487
78527
78506
78519
78508
78459
78390
78338
78321
78324
78355
78329
78344
78396
78399
78425
78427
78454
78453
78460
78462
78449
78473
78489
78475
78489
78505
78496
78515
78536
78484
78419
78389
78332
78314
78311
78323
78337
78355
78374
78386
78414
78432
78432
78454
78444
78451
78436
78428
78469
78471
78463
78474
78470
78477
78497
78479
78411
78351
78308
78275
78291
78294
78304
78306
78328
78362
78380
78388
78407
78406
78401
78409
78420
78415
78420
78405
78437
78450
78442
78468
78466
78436
78370
78302
78262
78256
78252
78263
78300
78298
78332
78341
78378
78401
78387
78410
78433
78425
78422
78443
78442
78451
78472
78488
78498
78485
78491
78409
78341
78302
78285
78272
78313
78310
78336
78351
78392
78410
78429
78426
78415
78428
78438
78429
78447
78457
78441
78450
78459
78452
78463
78441
78374
78311
78259
78263
78256
78258
78294
78309
78327
78339
78376
78403
78397
78398
78399
78411
78419
78430
78431
78448
78464
78495
78493
78525
78472
78398
78364
78329
78348
78359
78379
78398
78429
78461
78471
78491
78518
78511
78515
78531
78525
78526
78554
78551
78581
78574
78583
78605
78601
78537
78487
78444
78407
78402
78422
78421
78455
78456
78487
78533
78516
78549
78547
78568
78553
78560
78571
78577
78576
78599
78592
78599
78613
78636
78597
78513
78465
78414
78404
78425
78401
78425
78439
78488
78502
78527
78529
78523
78544
78543
78543
78555
78556
78558
78566
78576
78564
78579
78576
78593
78516
78466
78388
78384
78370
78386
78392
78423
78446
78460
78482
78512
78528
78551
78537
78539
78566
78589
78577
78581
78564
78574
78570
78554
78563
78561
78514
78440
78382
78320
78317
78307
78330
78349
78366
78361
78409
78408
78405
78402
78400
78418
78404
78424
78412
78420
78412
78418
78424
78422
78428
78429
78401
78307
78268
78218
78198
78210
78195
78221
78249
78254
78265
78295
78307
78306
78317
78305
78323
78302
78289
78304
78332
78308
78313
78341
78334
78307
78239
78177
78150
78091
78134
78109
78134
78162
78180
78192
78205
78231
78237
78239
78247
78236
78240
78231
78257
78269
78255
78278
78288
78268
78242
78161
78103
78071
78075
78051
78079
78077
78083
78118
78137
78175
78187
78179
78207
78195
78201
78214
78236
78241
78244
78252
78254
78281
78252
78168
78110
78074
78047
78086
78076
78070
78113
78130
78185
78198
78208
78229
78231
78230
78228
78264
78262
78273
78277
78273
78292
78293
78287
78245
78165
78133
78111
78093
78111
78123
78153
78161
78188
78205
78252
78258
78251
78266
78256
78269
78261
78279
78288
78271
78297
78283
78297
78284
78234
78189
78125
78104
78102
78113
78114
78132
78159
78157
78195
78199
78216
78208
78228
78229
78229
78210
78241
78253
78253
78260
78278
78281
78301
78258
78170
78112
78069
78082
78065
78053
78045
78067
78075
78082
78111
78119
78096
78101
78101
78099
78123
78102
78098
78124
78122
78116
78115
78127
78117
78076
78002
77938
77900
77889
77878
77903
77936
77942
77952
77982
77977
77982
78000
78012
77999
77998
78024
78024
78004
78018
78013
78027
78042
78025
78015
77975
77913
77828
77804
77794
77797
77809
77827
77836
77873
77877
77909
77890
77929
77933
77913
77923
77930
77933
77928
77973
77958
77965
77966
77936
77900
77843
77758
77737
77731
77744
77761
77768
77790
77836
77823
77861
77879
77876
77874
77875
77882
77885
77907
77904
77909
77917
77945
77951
77924
77867
77798
77728
77713
77704
77715
77705
77766
77760
77802
77830
77840
77856
77855
77873
77872
77890
77894
77912
77901
77915
77917
77923
77937
77915
77888
77810
77746
77710
77711
77737
77718
77747
77764
77794
77829
77853
77853
77851
77882
77859
77894
77891
77892
77915
77906
77935
77938
77972
77976
77963
77909
77841
77770
77752
77750
77741
77763
77774
77799
77824
77861
77869
77891
77904
77910
77913
77935
77939
77945
77945
77952
77966
77969
77988
77979
77971
77969
77918
77836
77767
77734
77741
77749
77744
77777
77795
77828
77864
77873
77892
77897
77914
77922
77923
77933
77941
77947
77929
77972
77983
77999
77991
78009
78014
77959
77895
77828
77802
77803
77827
77840
77860
77878
77914
77924
77937
77965
77977
77984
77968
77989
77975
77997
77992
78007
78013
78032
78049
78078
78055
78015
77933
77879
77844
77828
77817
77831
77887
77882
77911
77950
77964
77984
77991
78012
77994
78010
78006
78025
78008
78043
78055
78047
78073
78071
78057
78003
77931
77873
77848
77843
77827
77852
77888
77901
77930
77967
77961
77987
78013
78003
77997
78010
78012
78018
78031
78032
78036
78057
78065
78054
78015
77951
77878
77846
77810
77828
77833
77859
77873
77914
77926
77966
77975
77976
77991
77982
77976
77999
78006
78022
78019
78016
78001
78022
78011
78018
77950
77879
77827
77796
77790
77813
77824
77839
77874
77877
77905
77942
77959
77958
77969
77953
77953
77980
77979
77977
77989
77976
77990
78031
78018
77997
77934
77856
77827
77820
77810
77789
77820
77823
77836
77869
77892
77943
77945
77957
77974
77969
77977
77989
77980
77987
78015
78036
78026
78023
78050
78038
77990
77904
77847
77823
77809
77805
77817
77840
77843
77869
77897
77923
77943
77952
77963
77942
77974
77980
77964
77985
77990
78013
77992
78027
78036
78031
78008
77936
77867
77813
77835
77824
77831
77878
77871
77898
77915
77952
77966
77982
77999
77986
77978
77984
78014
78015
78026
78046
78022
78053
78059
78052
78040
77986
77904
77862
77835
77832
77864
77866
77876
77908
77961
77959
77980
77988
78003
77988
78007
78012
78030
78023
78031
78057
78052
78069
78061
78071
78008
77939
77861
77832
77822
77816
77847
77868
77883
77890
77924
77928
77951
77960
77961
77981
77983
77986
77987
77992
77998
78010
78015
78041
78033
77982
77927
77844
77796
77803
77803
77815
77831
77863
77877
77898
77913
77959
77968
77968
77961
77974
77998
77985
77990
78005
77999
78025
78035
78025
77983
77923
77831
77804
77810
77799
77818
77821
77833
77866
77902
77940
77957
77943
77970
77951
77983
77980
77998
77997
77999
78010
78005
78013
78015
77998
77924
77836
77789
77770
77774
77777
77808
77809
77849
77882
77908
77920
77947
77944
77959
77942
77945
77953
77949
77966
77963
77989
77992
77984
78001
77968
77879
77830
77779
77778
77778
77822
77824
77853
77866
77871
77878
77908
77933
77943
77934
77928
77929
77943
77941
77954
77964
77981
77997
77998
77997
77951
77871
77826
77788
77786
77799
77804
77829
77858
77860
77876
77909
77928
77934
77945
77923
77935
77948
77942
77939
77943
77970
77957
77954
77986
77965
77929
77818
77786
77753
77754
77756
77780
77796
77811
77862
77856
77901
77896
77897
77909
77883
77881
77928
77894
77896
77938
77930
77942
77960
77927
77870
77814
77757
77742
77727
77750
77759
77777
77808
77830
77864
77880
77899
77902
77912
77913
77920
77930
77928
77949
77943
77961
77970
77965
77927
77851
77781
77743
77719
77724
77753
77746
77761
77783
77807
77839
77868
77873
77857
77893
77885
77900
77880
77882
77905
77899
77909
77924
77936
77892
77810
77741
77723
77711
77696
77710
77730
77727
77753
77790
77786
77812
77816
77825
77856
77843
77845
77849
77844
77887
77890
77868
77868
77895
77868
77836
77767
77679
77653
77623
77659
77636
77668
77663
77729
77714
77747
77750
77758
77775
77777
77764
77776
77798
77806
77810
77801
77811
77803
77847
77839
77797
77710
77646
77611
77601
77610
77615
77647
77673
77699
77713
77753
77766
77769
77770
77775
77804
77773
77793
77806
77804
77819
77813
77817
77830
77806
77783
77703
77639
77582
77578
77601
77610
77638
77625
77689
77697
77738
77735
77737
77749
77770
77766
77776
77775
77781
77791
77798
77816
77817
77809
77802
77707
77646
77597
77589
77569
77585
77592
77628
77648
77661
77685
77717
77715
77735
77726
77721
77726
77736
77751
77757
77777
77760
77785
77801
77775
77725
77650
77575
77577
77548
77547
77574
77584
77605
77630
77657
77685
77673
77707
77689
77708
77717
77716
77731
77725
77751
77738
77750
77757
77786
77777
77725
77645
77590
77547
77535
77542
77554
77560
77574
77599
77626
77669
77675
77689
77721
77713
77711
77718
77725
77743
77730
77755
77752
77748
77786
77815
77749
77731
77675
77627
77550
77580
77572
77563
77588
77603
77626
77647
77663
77689
77688
77689
77685
77701
77703
77714
77725
77722
77738
77731
77749
77775
77764
77760
77711
77663
77601
77554
77549
77555
77560
77600
77617
77622
77668
77690
77693
77698
77693
77703
77724
77730
77728
77729
77741
77749
77761
77761
77788
77769
77740
77684
77600
77566
77553
77563
77561
77575
77591
77628
77647
77665
77707
77715
77717
77711
77715
77728
77745
77751
77747
77749
77761
77773
77779
77793
77751
77696
77626
77561
77541
77578
77568
77587
77590
77622
77641
77670
77681
77715
77706
77714
77714
77710
77734
77739
77737
77746
77750
77804
77786
77787
77737
77667
77589
77554
77543
77557
77565
77578
77598
77612
77641
77671
77710
77682
77719
77711
77723
77719
77720
77738
77743
77755
77772
77789
77785
77799
77777
77701
77635
77579
77561
77545
77542
77578
77577
77602
77610
77653
77684
77693
77703
77711
77734
77718
77739
77742
77737
77747
77756
77759
77751
77772
77797
77760
77735
77644
77582
77567
77547
77583
77587
77605
77638
77654
77706
77681
77704
77711
77736
77737
77737
77737
77726
77764
77775
77759
77773
77789
77794
77804
77798
77740
77682
77637
77616
77614
77605
77647
77662
77682
77699
77722
77743
77767
77757
77775
77779
77789
77795
77796
77785
77818
77821
77820
77853
77861
77831
77817
77741
77673
77638
77633
77637
77649
77665
77677
77700
77732
77748
77768
77781
77792
77797
77812
77791
77797
77814
77814
77815
77824
77841
77849
77838
77782
77714
77669
77625
77619
77616
77632
77653
77653
77690
77692
77719
77744
77754
77769
77770
77770
77771
77775
77781
77776
77801
77800
77803
77808
77772
77706
77642
77574
77528
77536
77582
77589
77603
77607
77647
77636
77666
77678
77660
77676
77669
77691
77682
77684
77691
77717
77715
77725
77742
77715
77654
77592
77542
77526
77501
77526
77513
77545
77557
77578
77593
77611
77622
77644
77640
77639
77643
77656
77655
77650
77659
77649
77662
77683
77669
77622
77537
77465
77432
77415
77438
77435
77449
77484
77496
77541
77540
77577
77589
77583
77593
77601
77611
77613
77615
77620
77653
77624
77664
77646
77601
77532
77473
77425
77409
77404
77405
77416
77452
77490
77497
77518
77551
77559
77566
77578
77559
77572
77595
77583
77612
77604
77626
77629
77640
77645
77621
77531
77465
77415
77405
77426
77419
77450
77448
77505
77528
77556
77564
77586
77616
77580
77601
77600
77611
77608
77630
77634
77644
77648
77660
77651
77608
77531
77483
77443
77435
77443
77457
77493
77503
77524
77550
77556
77583
77600
77610
77607
77606
77606
77642
77613
77630
77648
77638
77661
77649
77618
77546
77470
77450
77439
77434
77466
77476
77506
77523
77531
77553
77578
77594
77601
77609
77597
77612
77593
77611
77634
77638
77638
77636
77621
77570
77509
77437
77417
77397
77417
77425
77448
77477
77500
77519
77539
77556
77565
77575
77567
77586
77579
77592
77617
77614
77601
77624
77630
77638
77574
77501
77439
77420
77431
77409
77410
77438
77470
77489
77516
77519
77561
77550
77575
77562
77600
77610
77612
77614
77626
77621
77629
77637
77666
77614
77541
77465
77414
77400
77403
77414
77429
77461
77471
77514
77528
77548
77545
77562
77588
77567
77573
77580
77591
77610
77610
77607
77623
77634
77642
77622
77542
77464
77418
77410
77415
77416
77430
77458
77491
77506
77528
77534
77557
77592
77580
77583
77601
77574
77609
77615
77621
77617
77628
77631
77644
77648
77626
77550
77489
77444
77413
77432
77431
77425
77461
77457
77502
77526
77570
77571
77597
77597
77609
77601
77606
77625
77638
77636
77656
77649
77653
77663
77658
77629
77548
77485
77475
77449
77474
77463
77491
77530
77539
77576
77601
77595
77611
77622
77622
77628
77632
77624
77660
77657
77663
77679
77672
77705
77688
77630
77561
77519
77464
77466
77474
77493
77510
77535
77563
77593
77611
77640
77644
77659
77658
77676
77685
77700
77695
77702
77706
77698
77710
77721
77690
77641
77535
77512
77486
77490
77507
77518
77541
77596
77596
77642
77670
77665
77672
77690
77697
77684
77686
77715
77726
77729
77721
77755
77749
77709
77663
77572
77539
77514
77509
77512
77540
77588
77567
77594
77609
77652
77663
77701
77689
77691
77698
77704
77703
77712
77728
77719
77742
77728
77732
77679
77615
77558
77520
77511
77525
77539
77543
77566
77574
77618
77643
77666
77688
77680
77703
77702
77700
77709
77713
77716
77713
77737
77739
77745
77724
77684
77604
77557
77519
77504
77501
77519
77566
77570
77591
77618
77640
77667
77664
77670
77684
77680
77677
77708
77675
77707
77690
77702
77729
77732
77699
77648
77586
77501
77443
77451
77454
77471
77496
77506
77514
77544
77567
77579
77596
77620
77612
77607
77623
77612
77615
77644
77633
77661
77663
77637
77659
77628
77554
77488
77449
77449
77458
77464
77496
77503
77508
77545
77588
77583
77578
77599
77581
77580
77603
77593
77609
77597
77598
77598
77649
77622
77627
77555
77484
77442
77403
77397
77406
77431
77447
77477
77490
77517
77556
77566
77573
77602
77620
77609
77610
77607
77654
77633
77654
77666
77682
77657
77642
77546
77495
77471
77435
77448
77465
77489
77494
77536
77576
77587
77610
77635
77635
77636
77639
77641
77648
77652
77674
77651
77679
77685
77680
77626
77549
77492
77447
77435
