71054
71098
71144
71171
71175
71181
71181
71195
71194
71182
71197
71219
71238
71231
71169
71092
71048
71036
71056
71087
71127
71160
71166
71202
71204
71210
71200
71207
71216
71216
71231
71242
71263
71271
71211
71147
71129
71136
71161
71210
71249
71294
71327
71371
71361
71355
71350
71348
71334
71238
71106
70987
70798
70565
70383
70737
71129
71237
71279
54275
54208
54202
54230
54222
54245
54244
54307
54319
54216
54145
54109
54097
54090
54097
54133
54184
54192
54179
54153
54142
54101
54092
54077
54034
54046
54030
54026
54033
54037
54016
54009
71517
71544
71480
71421
71361
71612
71611
71623
71629
71644
71674
71687
71695
71680
71678
71693
71695
71693
71690
71683
71654
71546
71436
71368
71331
71310
71309
71295
71304
71316
71311
71287
71278
71285
71283
71301
71294
71282
71305
71272
71200
71136
71103
71120
71123
71126
71186
71206
71259
71294
71328
71342
71316
71310
71333
71368
71356
71362
71366
71348
71249
71121
71020
70963
70960
70952
70961
70978
70992
71009
71032
71050
71049
71067
71058
71049
71092
71102
71113
71138
71163
71103
70974
70856
70793
70734
70681
70629
70629
70592
70618
70626
70638
70655
70682
70717
70758
70811
70894
70944
71005
71054
71131
71125
71065
70983
71006
71032
71092
71143
71188
71250
71257
71285
71298
71305
71285
71290
71262
71225
71200
71206
71231
71228
71257
71230
71135
71075
71046
71035
71063
71064
71076
71095
71143
71161
71152
71141
71153
71148
71146
71099
71185
71173
71217
71275
71300
71324
71233
71250
71305
71283
71349
71389
71413
71468
71510
71526
71568
71576
71586
71587
71604
71612
71625
71647
71668
71663
71564
71478
71456
71466
71486
71546
71591
71616
71660
71733
71741
71759
71775
71824
71844
71913
71929
71954
72010
72022
72006
71948
71873
71838
71802
71833
71837
71865
71902
71921
71949
71958
72024
72007
72026
72072
72087
72111
72073
72064
72034
71891
71779
71712
71690
71681
71426
71202
70806
70497
70367
70347
70329
70383
70444
70463
70507
70568
70570
70605
70588
70574
70697
70835
70955
71095
71108
71034
70859
70672
70444
70169
69950
48920
69873
70149
70541
70879
71228
71547
71569
71355
71348
71415
71505
71540
71576
71596
71603
71629
71645
71612
71595
71632
71662
71677
71706
71737
71804
71797
71732
71657
71637
71635
71656
71676
71718
71809
71778
71651
71676
71621
71598
71584
71557
71571
71772
71779
71848
71814
71723
71645
71638
71627
71619
71655
71702
71731
71770
71816
71856
71923
71964
72017
72024
72069
72154
72200
72179
72065
71969
71888
71866
71842
71832
71834
71812
71846
71907
71922
71938
71694
71774
71765
71613
71719
71841
71902
71753
71635
71614
71707
71803
71856
71934
72022
72116
72202
72309
72344
72396
72452
72537
72585
72698
72798
72811
72967
72988
73056
73182
73203
73255
73277
73327
73311
73314
73329
73315
73282
73287
73311
73276
73336
73350
73337
73298
73197
73156
73145
73169
73205
73239
73260
73289
73323
73333
73325
73357
73400
73488
73457
73093
72735
72310
71894
71872
72144
72225
72268
72259
72222
72196
72202
72249
72324
72425
72477
72539
72574
72591
72600
72637
72670
72664
72574
72492
72477
72503
72575
72669
72729
72806
72897
72948
72950
72954
72849
72755
72567
72388
72236
72138
72210
72448
72666
72774
72849
72875
72832
72869
72892
72940
72975
72988
73042
73016
73015
72998
72995
72856
72554
72235
72158
72188
72277
72417
72609
72685
72695
72714
72709
72689
72667
72681
72678
72669
72663
72663
72591
72590
72613
72679
72710
72732
72821
72960
73058
73112
73200
73256
73309
73340
73385
73391
73466
73553
73606
73594
73387
73073
72536
72291
72928
72969
72988
72931
72862
72840
72812
72862
72872
72917
72973
72896
72742
72581
72620
72717
72829
72878
72958
72995
73016
73051
72985
72867
72812
72788
72804
72819
72857
72927
72995
73060
73102
73101
73117
73107
73122
73151
73176
73161
73155
73172
73182
73192
73209
73163
73030
72919
72884
72877
72869
72899
72900
72964
72995
73030
73058
73074
73072
73090
73093
73119
73150
73189
73213
73224
73241
73308
73245
73197
73069
73025
72889
72661
72307
71777
71172
70698
70516
70339
70299
70416
70446
70442
70552
70802
71530
72525
73360
73975
74325
74671
75156
75750
76789
76901
77306
77273
77096
76838
76669
76791
76881
76904
76805
76958
77125
76991
76882
76918
76870
76766
76702
76666
76609
76583
76535
76431
76339
76274
76200
76110
76022
75937
75747
75490
75223
74940
74776
74541
74250
73886
73442
73171
72912
72628
72462
72323
72182
71947
67062
71413
71254
71133
71023
70897
70812
70746
70713
70686
70609
70519
69713
69655
69664
69725
69756
69757
69736
69706
69656
69590
69509
69407
69293
69237
69204
69175
69166
69173
69172
69179
69211
69225
69216
69234
69237
69233
69233
69244
69251
69255
69241
69258
69173
69126
69013
68882
68803
68796
68790
68784
68802
68834
68870
68888
68891
68907
68900
68896
68904
68907
68926
68926
68952
68966
68973
68988
68998
68990
69006
69009
69044
69065
69078
69095
69105
69127
69160
69165
69186
69217
69227
69177
69074
68985
68932
68922
68900
68944
68959
68992
69037
69058
69092
69107
69145
69137
69128
69167
69178
69213
69213
69244
69254
69253
69242
69251
69257
69270
69281
69306
69331
69327
69324
69233
69152
69088
69087
69079
69087
69134
69143
69184
69214
69235
69255
69249
69276
69399
69459
69488
69512
69551
69547
69579
69588
69604
69621
69632
69661
69679
69712
69709
69714
69655
69581
69521
69498
69495
69503
69518
69547
69580
69613
69610
69644
69651
69645
69645
69663
69676
69681
69720
69743
69773
69765
69779
69816
69797
69814
69843
69848
69849
69818
69697
69616
69595
69553
69573
69576
69585
69602
69605
69622
69659
69643
69635
69635
69626
69638
69653
69662
69666
69673
69691
69693
69684
69691
69686
69724
69723
69699
69584
69508
69452
69443
69443
69454
69439
69464
69479
69533
69542
69549
69539
69530
69551
69555
69572
69576
69591
69584
69607
69598
69637
69644
69646
69673
69655
69557
69490
69450
69434
69431
69419
69431
69458
69471
69505
69526
69535
69512
69535
69540
69540
69558
69594
69564
69597
69611
69639
69629
69671
69680
69705
69697
69681
69578
69489
69460
69434
69419
69432
69445
69460
69486
69515
69535
69550
69556
69563
69583
69581
69592
69609
69636
69652
69661
69682
69683
69692
69711
69710
69739
69717
69642
69558
69508
69489
69474
69478
69486
69526
69539
69568
69591
69588
69617
69592
69586
69610
69635
69619
69625
69653
69650
69660
69670
69679
69701
69705
69698
69715
69725
69671
69568
69504
69476
69467
69468
69465
69479
69494
69523
69560
69555
69551
69552
69555
69537
69554
69567
69585
69596
69595
69620
69583
69610
69602
69616
69667
69675
69681
69663
69619
69527
69468
69444
69433
69446
69449
69499
69496
69520
69550
69558
69560
69554
69546
69565
69571
69598
69594
69608
69612
69606
69580
69581
69569
69588
69584
69565
69528
69465
69504
69552
69617
69660
69670
69629
69541
69472
69320
69228
69193
69212
69257
69290
69316
69354
69440
70120
71705
75124
70679
69036
71078
73254
73139
69245
69392
69051
69530
70583
71518
72525
74699
76470
76817
77165
73331
72599
72772
75371
76080
76408
76559
76641
76679
76502
76345
76067
75072
72563
74380
72092
71614
71130
72466
71008
69834
70537
71464
71819
73339
74081
74540
74683
74892
75075
75234
75375
75555
75752
75801
75870
75865
75699
75295
74916
74828
75100
75426
75655
75835
76003
76143
76238
76295
76336
76327
76297
76219
76152
76081
76052
76068
76059
76054
76026
76021
75901
75828
75766
75731
75731
75800
75899
75934
75999
76000
75925
75938
75908
75877
75853
75829
75822
75852
75840
75811
75793
75762
75738
75721
75700
75611
75563
75547
75529
75593
75619
75637
75621
75643
75631
75618
75610
75585
75553
75566
75546
75564
75553
75577
75609
75611
75613
75594
75584
75588
75564
75521
75500
75392
75293
75209
75202
75209
75241
75269
75306
75333
75366
75376
75376
75403
75426
75430
75420
75444
75470
75476
75497
75533
75545
75567
75577
75568
75595
75584
75620
75657
75719
75717
75685
75601
75563
75564
75551
75539
75520
75534
75549
75534
75545
75582
75563
75559
75560
75571
75572
75562
75596
75569
75573
75568
75564
75553
75557
75574
75588
75550
75499
75484
75503
75493
75477
75478
75495
75495
75499
75504
75547
75560
75548
75556
75572
75586
75601
75599
75609
75618
75622
75642
75640
75654
75635
75631
75584
75595
75611
75645
75688
75732
75756
75777
75777
75791
75778
75725
75696
75663
75662
75626
75622
75635
75618
75618
75632
75630
75652
75653
75648
75587
75541
75531
75533
75525
75555
75550
75583
75597
75615
75621
75624
75647
75658
75643
75628
75647
75663
75672
75685
75681
75704
75723
75703
75703
75697
75695
75672
75659
75575
75530
75510
75516
75521
75546
75548
75560
75560
75578
75603
75619
75607
75612
75611
75636
75627
75651
75661
75661
75688
75695
75710
75728
75729
75728
75749
75762
75740
75789
75742
75713
75643
75608
75601
75585
75613
75608
75623
75635
75639
75639
75653
75653
75646
75612
75628
75615
75625
75615
75634
75634
75651
75668
75648
75664
75660
75652
75670
75663
75668
75645
75583
75543
75516
75508
75496
75513
75504
75518
75522
75506
75528
75525
75527
75497
75497
75506
75517
75536
75527
75516
75511
75513
75520
75498
75514
75507
75485
75420
75363
75313
75300
75297
75306
75323
75313
75333
75334
75341
75351
75349
75334
75328
75339
75363
75349
75333
75348
75342
75356
75349
75346
75331
75361
75339
75305
75201
75126
75107
75075
75061
75088
75086
75111
75128
75153
75144
75160
75186
75175
75187
75200
75205
75209
75198
75217
75201
75202
75222
75209
75209
75203
75239
75247
75253
75226
75161
75092
75082
75078
75057
75073
75113
75115
75136
75171
75176
75187
75178
75194
75205
75184
75199
75212
75227
75222
75238
75254
75266
75267
75270
75278
75284
75288
75313
75322
75338
75362
75346
75326
75249
75220
75194
75191
75187
75167
75174
75164
75161
75168
75160
75199
75191
75228
75209
75230
75217
75228
75245
75248
75248
75251
75233
75263
75246
75249
75251
75255
75247
75267
75231
75155
75122
75065
75062
75038
75030
75051
75059
75075
75056
75049
75056
75043
75045
75053
75035
75023
75034
75030
75036
75008
75023
75021
75059
75048
75048
75050
75044
75004
74937
74900
74885
74859
74850
74858
74874
74894
74885
74901
74914
74911
74905
74924
74915
74923
74924
74948
74942
74944
74956
74977
74987
75039
75045
75073
75081
75041
75022
74941
74901
74887
74874
74867
74851
74889
74895
74897
74891
74917
74913
74925
74924
74912
74905
74912
74925
74937
74923
74918
74900
74898
74845
74808
74812
74748
74730
74679
74617
74487
74384
74335
74298
74257
74276
74270
74290
74311
74245
74206
74141
74124
74046
73965
73879
73811
73708
73616
73577
73494
73434
73381
73331
73305
73309
73299
73262
73231
73224
73243
73211
73109
73033
72917
72783
72641
72465
72256
72048
71772
71440
71171
70992
70887
70875
70877
70956
71074
71166
71296
71456
71537
71528
71453
71392
71383
71390
71388
71348
71307
71076
70869
70471
69972
70097
70886
71907
73227
73722
73639
73882
73877
73684
73887
73903
74138
73937
72937
74660
76182
76939
76990
76939
76961
76951
76922
76872
76844
76787
76766
76749
76809
76829
76845
76867
76815
76831
76787
76899
76863
76672
76423
75995
76240
76364
76395
76760
76982
77075
76997
76904
76411
75268
74350
74206
74535
74884
75548
76011
75803
75901
76142
76374
76330
76046
75708
75680
75667
73641
72426
71917
71905
72334
72792
73129
73338
73518
73565
73609
73684
73776
73852
73993
74153
74316
74495
74681
74847
75022
75109
75242
75350
75441
75498
75528
75566
75577
75567
75606
75642
75677
75751
75751
75732
75680
75694
75740
75778
75863
75934
76024
76109
76198
76258
76259
76289
76284
76329
76366
76407
76389
76466
76481
76481
76477
76498
76519
76547
76561
76562
76539
76525
76470
76393
76331
76296
76293
76288
76323
76306
76294
76251
76209
76186
76159
76142
76165
76175
76201
76226
76221
76251
76241
76262
76272
76262
76259
76261
76255
76216
76216
76191
76145
76106
76060
76024
76013
76017
76024
76057
76087
76074
76081
76088
76095
76105
76111
76111
76061
76102
76101
76116
76116
76134
76098
75868
75422
75007
74645
74292
73855
73437
73027
72675
72408
72182
71949
71701
71542
71415
71249
70985
70793
70694
70406
70294
70098
69830
69989
70562
71477
73099
72472
73773
73237
73470
72799
72132
71774
71719
71531
71474
71531
71534
71650
71703
71710
71410
71243
73946
75578
77364
75655
72811
68689
68603
70602
69929
69761
71669
73486
73267
73493
74546
76003
76642
76171
74529
76889
75868
72890
72545
74346
74636
75030
75201
75297
75370
75358
75561
75886
76255
76445
76604
76761
76819
76315
75983
76558
77138
77216
76488
75298
76789
76213
75776
75331
74614
74384
74032
73770
73422
73100
72749
72304
72006
72128
72332
72971
73146
73389
73697
73898
74283
74731
74931
75168
75364
75404
75525
75651
75756
75851
75967
76073
76137
76216
76301
76364
76379
76362
76331
76267
76217
76170
76098
76076
76031
75985
75966
75894
75833
75781
75723
75669
75660
75659
75674
75727
75784
75805
75869
75871
75858
75818
75798
75748
75697
75657
75618
75573
75556
75543
75559
75545
75511
75524
75484
75442
75385
75395
75477
75547
75672
75748
75733
75722
75762
75770
75749
75749
75730
75683
75640
75604
75569
75545
75512
75483
75468
75469
75463
75452
75454
75419
75360
75297
75258
75254
75224
75244
75247
75256
75265
75330
75348
75384
75375
75390
75432
75442
75442
75450
75476
75450
75456
75412
75392
75374
75342
75321
75235
75154
75085
75069
75013
74992
75018
75039
75044
75034
75064
75083
75073
75083
75022
75025
74983
74971
74918
74879
74862
74839
74839
74810
74832
74830
74817
74825
74838
74824
74817
74761
74752
74735
74742
74714
74688
74690
74697
74739
74748
74800
74820
74824
74877
74889
74879
74820
74768
74724
74678
74610
74467
74285
74164
74159
74089
73986
73866
73788
73726
73637
73508
73432
73362
73296
73219
73109
73063
72993
72965
72927
72902
72853
72750
72707
72652
72654
72634
72617
72624
72611
72590
72592
72587
72562
72556
72563
72493
72401
72326
72279
72245
72226
72235
72218
72277
72332
72359
72390
72395
72397
72364
72380
72400
72400
72413
72430
72464
72506
72511
72529
72539
72552
72561
72508
72393
72356
72315
72296
72295
72289
72311
72320
72337
72364
72383
72393
72410
72478
72499
72522
72544
72579
72557
72573
72614
72616
72625
72652
72654
72662
72660
72589
72537
72510
72489
72486
72491
72513
72548
72568
72608
72620
72636
72657
72658
72651
72658
72681
72681
72687
72691
72734
72741
72736
72742
72757
72795
72816
72823
72809
72760
72709
72662
72658
72678
72681
72677
72726
72733
72753
72795
72808
72820
72831
72854
72870
72835
72857
72892
72865
72849
72887
72907
72918
72939
72946
72972
72982
72941
72885
72842
72846
72880
72884
72912
72938
72959
72996
73035
73049
73055
73072
73084
73111
73130
73135
73150
73153
73180
73202
73224
73232
73241
73258
73235
73201
73122
73091
73050
73055
73042
73060
73091
73095
73130
73136
73147
73154
73154
73157
73168
73168
73186
73189
73202
73217
73237
73268
73261
73267
73273
73264
73289
73224
72074
72120
72144
72147
72180
72222
72221
72289
72293
72351
72361
72381
72373
72384
72411
72404
72438
72436
72455
72487
72490
72508
72526
72532
72556
72555
72577
72601
72602
72550
72480
72455
72428
72427
72442
72471
72493
72495
72513
72534
72561
72570
72581
72564
72561
72570
72592
72617
72608
72638
72655
72661
72678
72692
72706
72695
72734
72748
72773
72779
72771
72719
72648
72645
72631
72645
72638
72681
72695
72726
72720
72767
72778
72774
72765
72785
72792
72807
72821
72819
72826
72822
72817
72824
72846
72832
72843
72828
72829
72824
72810
72724
72678
72635
72603
72605
72594
72617
72623
72632
72673
72682
72669
72672
72658
72660
72691
72688
72692
72727
72746
72745
72734
72758
72756
72769
72763
72773
72762
72697
72635
72601
72566
72567
72573
72587
72578
72606
72608
72636
72614
72586
72570
72463
72158
71812
71585
71510
71484
71535
71535
71572
71518
71422
71250
70997
70647
70310
69996
69756
69575
69459
69393
69419
69289
69270
69235
69151
69019
68895
68932
68978
69016
69027
69271
70136
74369
77043
76649
76090
75232
74403
73668
73248
73316
72220
71334
72004
73339
74218
74368
75030
76353
77129
77413
77625
77526
77354
77254
77236
77159
77142
77124
77109
77092
77081
77103
77183
77190
77231
77273
77039
76744
76316
76141
75778
75468
75422
75333
75334
75675
75205
74540
72814
72456
74055
73687
73855
73890
73893
73856
73911
73896
73950
73926
73923
73922
73959
73919
73865
73920
74010
74155
74236
74328
74459
74574
74690
74766
74818
74895
74972
75046
75094
75116
75156
75199
75216
75250
75283
75310
75321
75302
75295
75274
75235
75219
75237
75252
75286
75351
75382
75392
75406
75409
75398
75411
75394
75426
75454
75431
75460
75487
75475
75484
75510
75524
75538
75544
75518
75458
75446
75424
75419
75429
75437
75425
75410
75380
75351
75348
75316
75279
75240
75223
75201
75153
75105
75063
75025
75017
75025
75209
75609
75783
75761
75778
75424
75177
74799
74156
74203
74245
74340
74350
74476
74600
74671
74719
74713
74732
74710
74711
74719
74716
74707
74717
74719
74721
74727
74728
74734
74750
74709
74638
74629
74621
74622
74643
74651
74690
74703
74726
74719
74732
74738
74748
74716
74422
74528
74545
74579
74605
74619
74665
74671
74702
74735
74782
74805
74830
74868
74908
74902
74868
74810
74825
74819
74836
74851
74856
74884
74889
74905
74905
74931
74924
74937
74930
74954
74969
74979
74987
74998
75012
75020
75055
75053
75057
75080
75106
75087
75118
75110
75059
74986
74953
74920
74916
74904
74922
74937
74973
74992
75036
75063
75087
75112
75108
75124
75145
75126
75165
75163
75184
75203
75201
75223
75222
75251
75258
75243
75177
75167
75112
75110
75113
75137
75140
75158
75161
75176
75193
75165
75187
75180
75182
75167
75192
75173
75184
75220
75215
75233
75259
75273
75295
75314
75317
75321
75280
75237
75217
75213
75208
75219
75241
75268
75283
75303
75328
75334
75366
75362
75355
75386
75387
75383
75390
75394
75370
75364
75364
75373
75346
75377
75373
75379
75360
75322
75293
75250
75235
75211
75234
75212
75223
75259
75251
75277
75267
75268
75248
75264
75243
75270
75261
75254
75236
75259
75273
75251
75290
75277
75294
75293
75289
75293
75277
75235
75182
75187
75177
75142
75154
75163
75136
75140
75120
75106
75097
75115
75099
75083
75134
75177
75241
74906
74705
74535
74408
74322
74303
74281
74270
74254
74170
74117
74065
74023
73993
73999
74010
74022
74025
74080
74075
74088
74124
74166
74185
74194
74235
74243
74285
74281
74304
74322
74336
74355
74370
74399
74423
74336
74255
74202
74152
74149
74139
74181
74190
74212
74230
74263
74283
74288
74317
74343
74369
74348
74361
74368
74350
74386
74391
74399
74419
74441
74463
74482
74492
74521
74522
74504
74494
74422
74388
74377
74370
74380
74359
74360
74304
74293
74267
74272
74241
74229
74220
74190
74203
74229
74243
74251
74239
74253
74256
74241
74237
74231
74243
74211
74122
74012
73906
73867
73849
73858
73865
73868
73871
73878
73907
73936
73908
73901
73871
73832
73770
73763
73737
73706
73670
73656
73660
73636
73666
73674
73668
73638
73585
73504
73442
73339
73249
73175
73094
73024
72951
72888
72886
72854
72776
72632
72487
72207
71989
72171
71151
70409
70703
70497
70280
70343
70482
71137
71458
71657
72654
74271
75235
77143
75881
74113
71497
71365
70771
73435
73974
76076
76295
74480
71523
70184
71344
71888
72029
74123
75803
77072
75913
76745
77016
77079
77203
77187
75683
76045
75040
72815
72532
71346
71465
73751
74065
74606
75073
75539
75839
75954
75887
75821
75792
75751
75740
75711
75717
75750
75749
75739
75729
75691
75537
75501
75392
75212
75236
75376
75438
75477
75500
75403
75325
75174
75049
74916
74855
74840
74818
74798
74764
74764
74764
74725
74702
74722
74740
74750
74736
74711
74693
74674
74684
74692
74720
74757
74793
74823
74848
74826
74828
74813
74827
74870
74870
74878
74877
74874
74882
74876
74861
74871
74879
74858
74837
74761
74738
74720
74676
74701
74677
74682
74697
74678
74692
74696
74705
74701
74700
74698
74716
74695
74714
74722
74694
74704
74695
74708
74682
74706
74671
74606
74594
74568
74551
74542
74557
74585
74589
74564
74589
74575
74589
74580
74569
74561
74584
74566
74586
74589
74589
74601
74584
74600
74590
74557
74533
74467
74412
74421
74417
74434
74416
74432
74430
74442
74424
74419
74412
74386
74396
74381
74394
74414
74417
74403
74403
74426
74414
74435
74458
74439
74400
74368
74354
74341
74350
74329
74348
74364
74374
74393
74405
74407
74413
74411
74396
74404
74409
74417
74416
74408
74410
74427
74442
74424
74437
74443
74457
74422
74380
74340
74333
74340
74356
74359
74372
74373
74373
74391
74397
74401
74411
74403
74406
74415
74416
74429
74462
74425
74426
74435
74442
74456
74447
74449
74461
74435
74394
74360
74358
74366
74372
74381
74400
74407
74442
74424
74438
74472
74458
74469
74451
74456
74452
74463
74472
74490
74496
74501
74503
74514
74513
74513
74494
74455
74431
74410
74410
74402
74444
74458
74448
74469
74479
74477
74510
74502
74500
74505
74502
74510
74519
74528
74516
74532
74516
74534
74541
74545
74553
74547
74479
74453
74450
74449
74449
74476
74465
74488
74513
74525
74537
74540
74539
74564
74566
74565
74576
74553
74575
74572
74571
74587
74594
74606
74593
74639
74617
74598
74548
74522
74501
74513
74504
74523
74516
74552
74565
74574
74603
74594
74584
74585
74590
74592
74606
74625
74623
74622
74626
74618
74627
74633
74624
74629
74634
74639
74611
74558
74513
74527
74524
74540
74559
74560
74583
74570
74585
74566
74591
74596
74582
74564
74579
74572
74571
74561
74586
74573
74587
74609
74599
74596
74605
74596
74564
74515
74488
74498
74519
74513
74501
74521
74540
74555
74575
74586
74589
74569
74580
74584
74593
74607
74605
74604
74616
74619
74633
74629
74632
74649
74640
74612
74584
74559
74570
74556
74547
74577
74590
74605
74612
74612
74628
74635
74657
74643
74645
74650
74642
74652
74655
74655
74674
74674
74687
74686
74672
74684
74661
74621
74591
74603
74603
74600
74616
74623
74626
74665
74670
74677
74687
74678
74694
74684
74699
74706
74698
74718
74698
74722
74718
74730
74730
74743
74736
74743
74708
74688
74646
74651
74656
74655
74692
74677
74690
74712
74711
74714
74712
74726
74709
74720
74747
74729
74769
74739
74670
74666
74666
74672
74690
74696
74702
74713
74740
74726
74740
74734
74740
74732
74739
74755
74759
74746
74746
74771
74757
74780
74776
74732
74712
74684
74655
74687
74682
74682
74705
74705
74713
74725
74739
74737
74741
74744
74742
74744
74743
74768
74767
74770
74782
74772
74791
74800
74802
74795
74807
74775
74733
74706
74712
74711
74708
74720
74720
74730
74750
74736
74746
74750
74736
74751
74742
74749
74762
74746
74772
74780
74767
74767
74778
74794
74794
74787
74794
74771
74757
74710
74698
74690
74692
74697
74695
74717
74692
74714
74732
74742
74726
74751
74729
74720
74723
74733
74746
74760
74755
74765
74757
74763
74762
74774
74799
74784
74764
74722
74678
74671
74667
74686
74714
74708
74706
74718
74725
74757
74765
74761
74736
74746
74756
74754
74747
74744
74754
74753
74743
74771
74746
74778
74768
74792
74749
74720
74675
74678
74666
74668
74673
74675
74712
74698
74706
74713
74724
74729
74729
74724
74745
74716
74743
74739
74743
74750
74773
74770
74754
74781
74773
74766
74753
74728
74682
74666
74655
74668
74665
74670
74682
74703
74711
74706
74715
74708
74711
74723
74715
74725
74726
74739
74742
74742
74730
74755
74764
74746
74768
74767
74764
74747
74730
74690
74655
74642
74653
74661
74682
74677
74694
74700
74718
74729
74737
74732
74734
74749
74740
74753
74757
74740
74779
74783
74769
74792
74785
74786
74792
74792
74786
74747
74705
74707
74669
74692
74702
74721
74718
74747
74763
74745
74781
74775
74781
74766
74769
74757
74782
74777
74794
74818
74813
74808
74809
74812
74803
74815
74820
74786
74752
74712
74693
74715
74725
74731
74737
74759
74762
74776
74782
74790
74788
74778
74773
74793
74799
74801
74818
74810
74805
74822
74822
74828
74832
74838
74818
74783
74742
74728
74725
74718
74717
74722
74747
74756
74765
74779
74774
74806
74809
74788
74816
74815
74828
74821
74828
74830
74850
74829
74854
74846
74860
74853
74870
74830
74771
74747
74736
74743
74743
74750
74757
74779
74775
74778
74789
74800
74818
74797
74800
74824
74819
74815
74826
74817
74841
74862
74858
74867
74858
74860
74885
74885
74842
74793
74782
74755
74756
74759
74736
74786
74777
74780
74808
74791
74797
74809
74808
74819
74807
74810
74825
74823
74826
74828
74829
74832
74837
74820
74828
74847
74789
74750
74733
74712
74714
74740
74721
74737
74733
74748
74778
74767
74785
74773
74777
74791
74772
74780
74784
74810
74798
74805
74806
74822
74817
74810
74838
74786
74734
74712
74691
74692
74705
74714
74705
74726
74741
74753
74754
74759
74758
74773
74755
74749
74770
74755
74756
74765
74781
74784
74801
74790
74807
52338
74771
74728
74682
74663
74654
74662
74676
74705
74697
74724
74734
74741
74774
74747
74758
74765
74768
74769
74775
74764
74791
74772
74779
74780
74794
74786
74801
74796
74734
74708
74691
74692
74703
74703
74708
74727
74734
74745
74771
74766
74787
74791
74795
74807
74783
74781
74804
74796
74800
74814
74821
74828
74833
74830
74834
74826
74776
74719
74712
74701
74719
74717
74728
74732
74746
74764
74774
74775
74792
74786
74787
74766
74805
74795
74816
74814
74811
74827
74831
74819
74830
74815
74824
74831
74759
74713
74714
74718
74710
74717
74721
74750
74757
74747
74777
74782
74797
74797
74769
74789
74790
74795
74809
74810
74803
74811
74831
74835
74821
74828
74776
74757
74720
74689
74701
74704
74712
74733
74745
74751
74750
74789
74767
74768
74773
74763
74792
74776
74772
74784
74799
74796
74791
74813
74817
74835
74820
74770
74709
74701
74676
74689
74671
74690
74690
74702
74717
74715
74740
74740
74747
74757
74756
74733
74746
74743
74745
74766
74768
74759
74754
74760
74778
74762
74764
74746
74664
74660
74628
74628
74642
74648
74625
74654
74682
74669
74692
74705
74704
74691
74683
74679
74681
74707
74682
74695
74705
74693
74696
74696
74685
74708
74690
74662
74621
74589
74575
74541
74556
74538
74566
74585
74627
74622
74623
74620
74634
74632
74624
74624
74612
74614
74638
74658
74646
74637
74660
74685
74680
74672
74673
74602
74561
74551
74543
74529
74543
74565
74568
74587
74610
74609
74614
74627
74628
74624
74619
74646
74641
74644
74653
74633
74645
74650
74667
74655
74673
74647
74584
74548
74537
74533
74534
74520
74554
74589
74569
74587
74615
74627
74639
74620
74630
74634
74638
74638
74667
74647
74665
74630
74639
74629
74619
74637
74612
74588
74546
74536
74489
74494
74496
74496
74478
74483
74484
74475
74480
74428
74337
74226
74160
74080
74042
74010
73975
73907
73872
73883
73847
73844
73781
73736
73673
73572
73458
73363
73283
73245
73188
73120
73051
72999
72930
72809
72666
72437
72263
72027
71779
71472
71067
70678
70355
70071
69871
69682
69493
69356
69218
69053
68939
68871
68869
68887
68958
68962
68989
69030
69100
69132
69173
69307
69462
69597
69656
69709
69800
69805
69753
69644
69575
69503
69438
69435
69389
69338
69257
69130
69231
69809
70521
71740
72428
72590
72668
72785
72878
73029
73288
73457
73009
72788
73134
72964
72537
72175
71867
71920
72129
72337
72307
71927
70825
70435
70374
69964
69848
70480
72286
75075
76130
75982
76609
76578
76753
76475
75546
75811
75557
75718
76463
76084
74134
73752
73531
73513
73215
72737
72658
72728
72949
73177
72303
71699
71719
70766
69753
69432
69680
69831
69933
70563
69374
69126
70243
70636
70765
70794
70709
70441
70123
70068
69775
69467
68888
68297
67781
67604
67632
67765
67806
67753
67864
68021
68193
68430
68755
69111
69583
70150
71138
72049
72542
73023
72321
71999
72473
73000
73337
73266
72756
72511
72300
71962
71683
71608
71563
71446
71232
71115
71088
71140
71390
71708
71987
72187
72440
72887
73317
73648
73879
74050
74156
74211
74298
74371
74422
74553
74615
74691
74798
74956
75027
75031
75008
75183
75185
74947
74796
74687
74457
74350
74430
74606
74628
74564
74531
74689
74858
74840
74809
74862
74963
75112
75225
75317
75341
75294
75136
75073
75001
74926
74904
74911
74963
75057
75121
75100
75061
75012
74965
74872
74634
74406
74279
74224
74261
74313
74377
74472
74614
74742
74810
74952
75035
75126
75159
75202
75233
75252
75270
75316
75322
75379
75373
75353
75281
75209
75201
75246
75242
75245
75118
74812
74531
74446
74527
74711
74859
75060
75237
75429
75523
75654
75741
75823
75874
75920
75905
75814
75614
75485
75327
75164
75020
74844
74683
74498
74319
74328
74442
74494
74356
74247
74139
74068
74039
74031
74139
74268
74417
74586
74693
74740
74782
74766
74812
74868
74910
74930
74866
74776
74698
74580
74401
74343
74279
74128
73914
73771
73600
73461
73291
73219
73069
72731
72550
72370
72136
72067
71125
69537
69186
69412
70860
70712
70481
70430
70446
70611
70948
71228
71303
71118
70845
70644
70698
71023
71560
72337
73085
73868
74787
76088
76321
76714
77246
77356
76623
76328
76528
76269
75702
74664
74247
74252
73697
74571
73458
73775
74452
76231
76834
77051
77084
77279
77520
77606
77708
77782
77824
77889
77934
77362
76770
76043
75513
75386
75477
75611
75692
75577
75463
75126
74797
74520
74255
74155
74151
74156
74183
74220
74148
74078
74000
73906
73831
73749
73709
73656
73711
73748
73836
73940
73883
73767
73723
73690
73670
73668
73682
73713
73763
73777
73812
73842
73954
74115
74286
74501
74684
74834
75055
75197
75209
75098
74902
74714
74682
74722
74722
74721
74685
74698
74666
74678
74762
74803
74868
74877
74951
74995
75039
74990
74951
74886
74803
74689
74593
74492
74405
74344
74269
74243
74260
74296
74366
74508
74648
74718
74776
74844
74932
75030
75079
75132
75141
75104
74983
74846
74773
74765
74764
74787
74780
74830
74851
74873
74954
75004
75072
75137
75224
75255
75374
75423
75470
75470
75453
75345
75274
75231
75200
75200
75206
75206
75203
75221
75236
75325
75420
75485
75528
75506
75501
75307
75118
74942
74693
74379
74028
73744
73539
73446
73340
73331
73343
73370
73682
74488
75474
76335
76942
77801
78802
78869
78432
78696
78542
78463
78425
78465
78299
78221
78011
78032
78100
78130
78278
78408
78387
78365
78381
78409
78412
78476
78548
78517
78506
78478
78400
78373
78162
78060
78131
78199
78205
78138
78023
77913
77801
77729
77701
77661
77637
77640
77632
77575
77527
77483
77474
77420
77337
77277
77258
77198
77162
77081
77052
77015
77004
76962
76951
76934
76926
76923
76960
76932
76938
76900
76852
76835
76812
76680
76479
76172
75447
74372
73443
72764
72408
72314
72320
72493
73088
74020
74613
74941
75125
75163
75091
74873
74710
74522
74431
74474
74493
74578
74608
74651
74783
74883
74979
75106
75212
75271
75242
75099
75015
74982
74989
74931
74914
74955
74987
75045
75131
75220
75265
75310
75373
75436
75494
75562
75567
75544
75503
75456
75435
75434
75428
75504
75594
75668
75726
75794
75975
76393
76630
76825
77035
78372
78852
78746
77383
76536
75519
74017
71403
71436
70862
72790
72820
72976
73113
73472
74004
74395
74888
75264
75486
75695
75734
75718
75724
75774
75796
75907
75972
76081
75831
75294
74161
72952
72097
71719
71584
71582
71830
72023
72169
72533
72922
73342
73781
74171
74294
74455
74501
74543
74583
74568
74498
74427
74416
74254
74237
74215
74181
74162
74110
74121
74191
74233
74207
74187
74111
73998
73853
73883
73936
73915
73942
74064
74181
74304
74372
74369
74268
74139
74139
74124
74058
74025
74079
74149
74166
74056
73888
73821
73737
73595
73479
73443
73475
73493
73554
73743
73804
73903
74107
74377
74753
75209
75560
75693
75624
75695
75821
75801
75758
75725
75674
75609
75524
75453
75314
75258
75214
75149
74989
74824
74752
74764
74773
74885
74934
74855
74721
74650
74520
74058
73598
72986
72658
72716
72977
73092
73232
73539
73784
73865
74085
74320
74464
74501
74499
74494
74414
74409
74420
74407
74368
74323
74278
74236
74220
74278
74314
74298
74301
74360
74387
74304
74136
73995
73760
73499
73242
72273
72043
71767
71577
71432
71354
71368
71459
71545
71614
71694
71880
72366
72700
72889
73020
73091
73186
73316
73448
73510
73540
73527
73586
73645
73640
73233
72762
72506
72462
72454
72475
72491
72451
72450
72437
72423
72335
72345
72348
72326
72212
72141
72068
72022
72026
72025
72062
72146
72111
71950
71811
71741
71728
71775
71823
71895
72001
72070
72166
72227
72269
72224
72200
72171
72183
72185
72188
72156
72114
72072
72091
72106
72164
72263
72325
72277
72164
72035
71894
71803
71759
71726
71688
71694
71677
71668
71663
71584
71524
71511
71480
71447
71489
71502
71536
71582
71629
71571
71408
71279
71182
71127
71097
71081
71019
70957
70875
70796
70766
70659
70592
70571
70521
70417
70360
70323
70358
70338
70282
70176
70114
70089
70110
70219
70364
70452
70527
70588
70607
70682
70714
70742
70705
70722
70736
70792
70895
70965
70983
71014
70971
70932
70895
70880
70935
70968
71029
71127
71163
71137
71141
71154
71176
71189
71160
71110
71006
70967
70930
70924
71007
71069
71085
71087
71072
71086
71110
71142
71174
71194
71230
71199
71251
71283
71273
71279
71257
71289
71355
71432
71549
71706
71815
71882
71844
71918
71911
71797
71662
71459
71302
71208
71104
71032
71023
71030
71066
71197
71310
71434
71532
71588
71671
71726
71777
71780
71806
71829
71895
71919
71883
71894
71872
71848
71880
71891
71932
71908
71848
71798
71759
71771
71757
71718
71682
71651
71586
71521
71411
71307
71203
71090
70945
70823
70749
70729
70709
70758
70837
70931
71004
71006
71036
71044
71098
71097
71092
71082
71091
71128
71184
71316
71442
71564
71684
71722
71836
71875
71910
71920
71904
71910
71899
71857
71802
71790
71761
71759
71775
71773
71774
71825
71878
71934
72042
72098
72071
72048
72012
72017
72027
72027
72064
72084
72104
72144
72171
72239
72250
72223
72189
72113
72037
72000
71988
71874
71728
71526
71317
71108
70947
70834
70726
70700
70653
70599
70557
70504
70454
70424
70360
70309
70304
70305
70326
70404
70445
70456
70385
70253
70196
70161
70172
70226
70297
70306
70347
70563
70649
70828
71220
71835
71743
71734
71807
71893
71988
71990
71946
71876
71777
71741
71734
71733
71701
71712
71710
71761
71781
71781
71804
71774
71732
71763
71756
71761
71696
71674
71653
71571
71503
71468
71505
71629
71641
71621
71616
71668
71723
71746
71764
71781
71788
71765
71719
71623
71550
71479
71451
71438
71388
71366
71360
71383
71406
71396
71399
71393
71417
71415
71384
71430
71493
71510
71484
71496
71454
71495
71563
71561
71551
71561
71549
71578
71601
71631
71652
71641
71678
71701
71740
71759
71702
71658
71623
71605
71616
71631
71663
71689
71689
71646
71575
71548
71523
71559
71589
71613
71622
71638
71676
71698
71692
71683
71683
71684
71709
71786
71793
71805
71859
71861
71801
71709
71658
71641
71571
71554
71558
71553
71548
71533
71553
71562
71527
71515
71510
71494
71452
71476
71411
71339
71233
71125
71056
71008
70945
70943
70928
70957
70940
70972
70918
70919
70878
70939
70965
71247
71869
72314
72546
72643
72649
72622
72636
72615
72556
72538
72570
72562
72553
72593
72612
72673
72712
72791
72814
72779
72825
72838
72858
72817
72774
72728
72667
72532
72326
72072
71880
71729
71587
71518
71501
71476
71542
71650
71734
71745
71752
71723
71687
71522
71325
71338
71371
71407
71409
71312
71236
71125
71103
71084
71052
71071
71061
71067
71016
70968
70826
70821
71073
71271
71301
71175
71054
70982
70945
70916
70893
70966
71049
71230
71401
71625
71833
72017
72227
72490
72533
72506
72498
72552
72636
72705
72811
72951
72950
72940
72986
73152
73209
73229
73257
73215
73204
73198
73196
73120
72982
72915
72970
73000
73004
72962
72850
72812
72592
72479
72394
72287
72219
72135
72172
72398
73282
74096
74455
74601
76025
77712
77582
77122
76991
75238
74686
74293
73555
73890
76372
76039
77663
76404
75625
75999
75630
75175
74548
75019
75439
75657
75701
75541
75256
74970
75057
75065
74564
72868
73573
73439
75486
75773
75823
75972
76122
76256
76215
75966
75516
75261
75352
75699
76321
76565
76487
76320
76196
76140
76129
76138
76175
76212
76244
76254
76283
76218
76220
76193
76150
76181
76261
76318
76375
76407
76397
76342
76245
76161
76125
76093
76085
76112
76115
76117
76172
76213
76203
76259
76335
76349
76378
76415
76426
76386
76270
76158
76083
76041
76032
76048
76078
76093
76105
76115
76107
76075
76004
75969
75961
75908
75809
75752
75706
75680
75566
75456
75418
75377
75420
75428
75413
75329
75318
75304
75189
75139
75192
75273
75304
75316
75339
75402
75384
75313
75222
75216
75256
75279
75324
75349
75398
75442
75453
75500
75520
75558
75566
75642
75733
75806
75852
75912
75908
75829
75737
75714
75711
75799
75888
75983
76051
76121
76167
76167
76170
76180
76189
76174
76133
76168
76161
76142
76015
75918
75851
75821
75815
75802
75812
75837
75884
75909
75909
75909
75905
75913
75932
75969
75996
76024
76045
75982
75889
75815
75784
75774
75778
75753
75655
75531
75335
75114
75027
75052
75211
75391
75482
75526
75561
75626
75668
75642
75527
75527
75494
75520
75544
75564
75579
75593
75683
75796
75876
75949
76031
76068
76131
76146
76120
76137
76099
75989
75813
75654
75594
75534
75521
75592
75568
75580
75598
75607
75672
75758
75802
75829
75858
75870
75872
75839
75816
75736
75642
75559
75544
75556
75604
75623
75630
75654
75690
75697
75660
75681
75734
75823
75871
75887
75869
75855
75878
75857
75813
75751
75750
75801
75837
75850
75888
75919
75953
76021
76089
76177
76183
76164
76118
76080
76007
75953
75931
75861
75701
75652
75656
75663
75632
75652
75696
75799
75867
75949
76005
76118
76208
76194
76180
76170
76209
76201
76239
76253
76219
76180
76106
76074
76107
76157
76170
76220
76256
76330
76381
76376
76341
76321
76285
76295
76308
76295
76258
76229
76136
76004
75982
76038
76035
76031
76093
76114
76074
76064
76078
76106
76129
76156
76157
76176
76214
76244
76246
76283
76370
76415
76366
76366
76366
76379
76337
76305
76298
76274
76300
76336
76362
76359
76387
76373
76354
76358
76380
76395
76424
76434
76474
76476
76419
76342
76275
76224
76202
76211
76227
76228
76273
76322
76352
76326
76311
76337
76351
76348
76375
76378
76397
76369
76293
76207
76155
76126
76162
76164
76189
76236
76213
76047
76054
76137
76166
76190
76252
76353
76432
76521
76555
76471
76364
76276
76235
76221
76201
76231
76253
76239
76232
76294
76361
76437
76466
76489
76511
76505
76546
76499
76465
76394
76322
76246
76182
76171
76134
76092
76108
76162
76236
76320
76402
76487
76546
76581
76598
76635
76628
76600
76533
76445
76367
76298
76278
76263
76240
76263
76306
76353
76396
76424
76470
76503
76532
76543
76518
76474
76441
76434
76384
76347
76291
76246
76271
76357
76433
76500
76558
76643
76735
76751
76724
76625
76571
76559
76550
76528
76541
76537
76554
76543
76507
76479
76408
76340
76257
76240
76214
76213
76238
76265
76305
76342
76344
76364
76392
76430
76455
76500
76522
76509
76390
76304
76218
76171
76177
76187
76211
76214
76220
76341
76421
76494
76482
76432
76355
76286
76216
76219
76078
75960
75855
75809
75845
75915
75890
75785
75689
75575
75498
75341
75282
75266
75239
75169
75138
75128
75142
75081
74978
74905
74893
75049
75110
75241
75280
74366
78593
78191
70161
71037
71250
73154
72536
71855
71922
71867
71622
71182
70777
70519
70444
70734
70953
71036
71131
71227
71522
72188
72721
73021
73633
73987
74104
74409
74756
75099
75352
75699
76222
76477
76835
77158
77372
77275
77595
78020
77735
77752
78032
78103
78242
78258
78068
78029
78137
78392
78662
78684
78123
77912
76347
74977
73780
73787
74189
74614
74978
74982
74840
74618
74700
74706
74681
74655
74665
74744
74830
74964
75144
75252
75394
75386
75240
75134
75177
75244
75296
75293
75275
75303
75287
75373
75326
75290
75298
75288
75271
75311
75368
75399
75439
75457
75552
75531
75492
75620
75777
75904
75850
75818
75770
75703
75745
75807
75909
76024
76109
76219
76180
76085
75990
75976
75976
76016
76068
75996
75994
75965
75907
75878
75826
75792
75739
75758
75783
75592
75268
74940
74727
74633
74576
74531
74504
74470
76040
75905
75874
75837
75770
75769
75799
75863
75926
76007
76090
76166
76178
76136
76107
76145
76086
75953
75864
75811
75764
75704
75728
75746
75814
75853
75895
75938
75963
75962
75910
75875
75828
75856
75857
75753
75726
75702
75668
75646
75688
75697
75804
75880
75967
76078
76121
76110
76096
76063
76046
76026
75902
75748
75629
75528
75503
75550
75604
75689
75752
75864
75946
75989
76002
75953
75956
75967
75949
75917
75868
75801
75711
75710
75716
75789
75899
75930
75956
75949
75918
75828
75836
75822
75862
75917
75957
75985
75982
75974
75943
75928
75952
75941
75888
75927
75955
75910
75876
75830
75822
75836
75887
75952
76038
76090
76138
76192
76230
76286
76251
76232
76167
76130
76038
75988
75981
76004
76033
76064
76087
76138
76091
76017
76014
76068
76112
76154
76187
76213
76234
76177
76072
76028
76000
75982
75911
75825
75790
75785
75679
75600
75635
75674
75733
75826
75908
75923
75842
75689
75584
75541
75567
75518
75553
75543
75555
75511
75580
75662
75694
75745
75823
75930
75965
75949
75853
75748
75745
75738
75775
75787
75868
75853
75865
75898
75969
76049
76080
76162
76231
76287
76300
76233
76210
76209
76152
76057
75957
75921
75901
75861
75884
75894
75978
76127
76220
76375
76435
76416
76449
76440
76398
76272
76147
76035
75968
75897
75873
75878
75897
75926
75930
76017
76057
76045
76029
75984
75998
76020
75998
75875
75781
75732
75688
75710
75762
75822
75851
75868
75956
76026
76074
76046
76045
76043
76102
76132
76096
76082
75998
75906
75873
75913
75956
76028
76055
76099
76192
76239
76233
76234
76242
76197
76192
76164
76153
76062
75929
75876
75847
75879
75897
75943
76045
76066
76052
76076
76113
76118
76125
76042
75960
75929
75908
75841
75791
75799
75810
75855
75878
75908
75918
75907
75919
75946
75961
76033
76030
75963
75956
75875
75842
75796
75829
75895
75912
75892
75881
75888
75841
75789
75837
75881
75903
75941
75945
75956
75939
75915
75905
75932
75995
76066
76197
76276
76310
76222
76139
76103
76126
76188
76169
76125
76113
76083
76007
75970
76005
76049
76121
76185
76257
76301
76263
76187
76083
76041
76035
76077
76100
76091
76093
76126
76102
76078
76058
76089
76090
76125
76172
76210
76235
76153
76097
76052
76048
76110
76146
76206
76275
76304
76359
76419
76447
76437
76411
76425
76443
76474
76488
76475
76417
76365
76336
76296
76311
76364
76377
76402
76449
76480
76492
76493
76476
76430
76343
76334
76326
76326
76292
76276
76263
76268
76321
76358
76439
76495
76532
76550
76526
76525
76492
76430
76417
76351
76255
76150
76039
75971
75896
75849
75843
75811
75767
75772
75778
75782
75774
75735
75751
75752
75748
75746
75700
75586
75490
75401
75346
75261
75201
75197
75178
75178
75198
75297
75418
75461
75451
75331
75274
75228
75198
75101
74984
74898
74856
74848
74821
74852
74847
74853
74903
74865
74832
74871
74950
74971
75002
75063
75122
75144
75160
75098
75064
75049
75047
75058
75086
75093
75138
75143
75150
75165
75174
75169
75169
75241
75364
75485
75596
75668
75715
75659
75658
75613
75541
75581
75632
75711
75735
75694
75682
75658
75698
75691
75745
75817
75852
75805
75706
75641
75620
75573
75527
75537
75541
75523
75534
75532
75502
75484
75489
75474
75516
75476
75471
75303
75008
74769
74650
74704
74614
74522
74525
74493
74532
74530
74514
74529
74542
74563
74564
74596
74646
74632
74523
74477
74408
74387
74321
74267
74248
74310
74360
74464
74560
74626
74721
74831
74930
74886
75096
75235
75263
75193
75215
75216
75223
75262
75312
75391
75424
75504
75557
75610
75663
75704
75709
75746
75752
75784
75753
75704
75565
75469
75453
75427
75411
75422
75463
75482
75560
75595
75610
75661
75715
75814
75893
75908
75914
75940
75953
75843
75696
75405
75083
74865
74621
74676
74863
74866
74805
74763
74708
74671
74633
74647
74683
74626
74768
74794
74647
74561
74496
74479
74513
74579
74667
74769
74821
74891
74940
74968
75005
75087
75171
75215
75256
75300
75298
75270
75223
75204
75229
75274
75315
75339
75416
75494
75543
75576
75581
75542
75403
75327
75225
75217
75237
75240
75226
75186
75117
75119
75138
75148
75185
75255
75329
75436
75596
75843
76089
76272
76406
76494
76662
76847
76990
77018
76932
76934
76928
77066
77132
77274
77351
77441
77633
77960
78084
78216
78313
78384
78457
78499
78549
78652
78650
78641
78561
78493
78469
78457
78425
78398
78346
78295
78299
78320
78445
78514
78684
78662
78687
78813
78818
78773
78808
78843
78840
78821
78850
78870
78873
78862
78870
78857
78883
78891
78878
78890
78872
78835
78797
78718
78676
78622
78583
78536
78479
78422
78493
78641
78694
78741
78774
78779
78812
78824
78827
78846
78840
78845
78826
78834
78830
78832
78825
78852
78857
78858
78848
78828
78803
78844
78847
78871
78866
78887
78880
78873
78889
78892
78899
78899
78904
78912
78892
78916
78905
78927
78910
78858
78855
78832
78854
78883
78868
78887
78917
78923
78933
78916
78917
78932
78923
78927
78919
78933
78925
78935
78934
78891
78851
78837
78818
78828
78840
78845
78848
78843
78869
78899
78868
78892
78893
78888
78895
78885
78899
78902
78904
78915
78912
78843
78824
78804
78818
78797
78820
78855
78866
78874
78893
78897
78906
78898
78895
78910
78907
78904
78924
78915
78899
78916
78898
78842
78816
78752
78754
78756
78752
78788
78772
78799
78824
78812
78816
78814
78824
78794
78825
78834
78819
78835
78822
78826
78852
78809
78743
78690
78661
78631
78655
78636
78651
78669
78680
78723
78720
78708
78709
78715
78739
78717
78731
78734
78721
78716
78719
78733
78685
78606
78554
78520
78545
78536
78532
78556
78577
78586
78595
78615
78618
78598
78602
78588
78598
78581
78580
78571
78567
78576
78537
78467
78421
78369
78330
78303
78300
78298
78295
78316
78320
78327
78317
78299
78287
78291
78284
78288
78291
78264
78257
78270
78266
78239
78164
78112
78092
78080
78082
78079
78094
78105
78115
78132
78120
78130
78148
78125
78137
78133
78137
78139
78129
78142
78151
78129
78062
78050
78000
77994
77991
78000
77993
78029
78032
78054
78079
78079
78067
78061
78077
78071
78081
78070
78091
78111
78106
78125
78094
78034
77991
77960
77952
77952
77963
77983
77988
77978
78000
78015
78016
78054
78040
78042
78052
78061
78054
78046
78053
78052
78073
78030
77971
77924
77884
77857
77870
77865
77859
77886
77896
77903
77887
77914
77909
77900
77921
77939
77902
77900
77907
77890
77861
77884
77864
77837
77753
77685
77653
77652
77633
77622
77621
77631
77654
77670
77689
77694
77708
77709
77730
77764
77749
77769
77776
77773
77781
77793
77786
77742
77671
77614
77599
77572
77578
77587
77587
77608
77629
77643
77639
77652
77651
77648
77644
77667
77652
77657
77655
77663
77659
77660
77639
77636
77583
77518
77488
77492
77477
77476
77495
77504
77516
77532
77524
77527
77527
77522
77513
77531
77522
77537
77545
77549
77531
77544
77542
77524
77472
77374
77342
77319
77283
77310
77293
77306
77323
77309
77324
77314
77310
77306
77286
77292
77282
77281
77283
77278
77291
77291
77296
77281
77188
77103
77047
77024
77045
77022
76996
77013
77077
77118
77223
77427
77564
77406
76573
75440
74365
72654
71700
71210
72398
73824
74414
74701
75334
75291
74171
73024
72515
73018
73665
73809
73963
74107
74125
74160
74043
73990
73944
73960
73907
73767
73340
73884
73312
72559
71705
72651
73781
75830
77160
76716
76684
76363
76704
76350
75963
75261
75248
75188
75508
76134
77041
77689
78206
78521
78858
78792
78218
78279
77872
77677
77559
77849
77866
77748
77755
77645
77705
77727
77675
77653
77563
77419
77251
77369
77431
77172
76956
76894
76817
76145
75088
74224
73823
73477
73391
73332
73324
73295
73277
73307
73319
73358
73379
73395
73446
73622
73708
73757
73784
73872
73933
73941
73962
73992
74017
74006
73942
73891
73869
73873
73897
73935
73966
74022
74107
74157
74193
74232
74240
74245
74284
74280
74316
74333
74350
74370
74429
74466
74462
74420
74401
74390
74411
74454
74467
74489
74524
74551
74599
74637
74661
74651
74640
74636
74629
74628
74623
74629
74620
74608
74637
74616
74581
74527
74506
74466
74498
74509
74511
74553
74581
74613
74630
74620
74628
74608
74588
74610
74580
74618
74645
74675
74682
74685
74691
74696
74674
74629
74579
74576
74566
74586
74630
74630
74675
74752
74876
75067
75241
75434
75433
75517
75656
75684
75602
75601
75589
75666
75714
75732
75741
75650
75555
75477
75411
75279
75002
74875
74703
74410
73978
73711
73196
73154
72981
72785
72629
72526
72443
72378
72335
72282
72242
72222
72183
72116
71658
71746
71784
71799
71790
71798
71800
71805
71798
71774
71753
71741
71717
71704
71712
71696
71687
71682
71664
71663
71659
71620
71543
71447
71409
71351
71314
71309
71298
71317
71342
71344
71358
71354
71335
71336
71316
71318
71340
71340
71327
71344
71348
71328
71342
71324
71294
71204
71138
71075
71074
71078
71083
71067
71081
71119
71123
71144
71138
71143
71121
71122
71129
71124
71142
71108
71100
71098
71101
71096
71112
71101
71097
71048
70976
70887
70867
70858
70868
70857
70878
70900
70922
70932
70942
70934
70931
70939
70925
70923
70926
70945
70941
70934
70942
70948
70953
70945
70969
70953
70933
70842
70788
70749
70752
70752
37842
70784
70798
70826
70843
70847
70870
70869
70873
70874
70885
70892
70866
70880
70904
70893
70900
70896
70903
70914
70923
70926
70811
70753
70719
70736
70726
70724
70767
70777
70807
70825
70833
70860
70828
70854
70849
70846
70854
70867
70865
70880
70910
70908
70886
70900
70903
70880
70817
70766
70731
70728
70722
70720
70761
70768
70767
70794
70799
70812
70801
70794
70780
70797
70809
70804
70810
70821
70803
70833
70816
70817
70818
70784
70721
70650
70632
70642
70657
70671
70674
70704
70722
70724
70732
70721
70706
70698
70702
70705
70706
70717
70715
70708
70705
70714
70736
70737
70733
70694
70608
70567
70546
70535
70529
70546
70551
70554
70562
70584
70578
70609
70593
70610
70601
70599
70609
70609
70626
70654
70637
70642
70650
70660
70658
70654
70608
70544
70436
70453
70448
70432
70442
70473
70472
70487
70516
70522
70537
70525
70497
70523
70519
70532
70549
70544
70523
70515
70511
70520
70531
70555
70547
70562
70554
70486
70417
70384
70381
70380
70394
70422
70440
70460
70491
70522
70530
70541
70544
70549
70569
70579
70578
70610
70613
70637
70657
70668
70685
70695
70695
70712
70697
70626
70549
70513
70503
70506
70527
70544
70579
70606
70642
70678
70684
70701
70710
70710
70721
70737
70760
70757
70788
70785
70776
70811
70811
70848
70851
70819
70757
70658
70628
70627
70618
70631
70621
70643
70686
70693
70719
70729
70744
70731
70761
70756
70767
70762
70798
70795
70812
70833
70849
70885
70901
70905
70884
70824
70738
70685
70630
70621
70597
70579
70592
70630
70631
70661
70692
70705
70707
70712
70726
70704
70728
70732
70740
70746
70751
70744
70770
70788
70804
70787
70783
70777
70683
70618
70558
70572
70559
70572
70606
70630
70644
70659
70686
70694
70711
70716
70724
70704
70726
70705
70724
70752
70746
70751
70790
70785
70790
70809
70808
70814
70775
70686
70637
70595
70603
70574
70593
70620
70615
70647
70664
70703
70679
70681
70688
70662
70685
70693
70682
70703
70718
70710
70706
70723
70708
70710
70726
70706
70656
70598
70520
70492
70476
70462
70482
70499
70498
70527
70537
70565
70580
70573
70569
70571
70590
70590
70596
70602
70618
70600
70621
70622
70625
70639
70630
70544
70468
70420
70401
70381
70387
70403
70402
70446
70456
70480
70521
70536
70519
70504
70492
70516
70535
70541
70555
70560
70563
70569
70584
70594
70605
70583
70498
70431
70377
70369
70344
70336
70344
70359
70401
70421
70445
70451
70481
70467
70477
70482
70492
70490
70511
70509
70504
70536
70544
70555
70558
70559
70575
70574
70503
70435
70386
70338
70355
70357
70373
70374
70397
70407
70440
70465
70464
70468
70456
70461
70447
70470
70487
70493
70508
70496
70509
70503
70507
70524
70525
70541
70483
70409
70347
70294
70280
70281
70285
70295
70315
70330
70341
70352
70356
70355
70360
70362
70368
70393
70390
70404
70413
70414
70416
70415
70431
70451
70467
70416
70343
70292
70217
70225
70210
70213
70228
70267
70266
70289
70317
70311
70340
70347
70342
70345
70360
70356
70362
70374
70401
70414
70417
70436
70424
70444
70470
70449
70396
70311
70258
70232
70226
70229
70242
70254
70271
70297
70321
70335
70349
70356
70347
70356
70349
70364
70384
70374
70396
70416
70412
70424
70444
70436
70476
70483
70494
70469
70399
70317
70293
70255
70267
70277
70260
70290
70317
70370
70378
70394
70399
70395
70400
70396
70401
70418
70414
70436
70436
70440
70457
70471
70471
70473
70473
70477
70495
70488
70410
70337
70286
70274
70250
70270
70274
70303
70308
70335
70348
70375
70396
70365
70377
70360
70387
70404
70399
70418
70412
70432
70435
70446
70445
70456
70454
70490
70427
70360
70287
70252
70245
70239
70240
70245
70247
70272
70305
70338
70312
70346
70358
70351
70372
70383
70378
70385
70393
70395
70403
70404
70413
70441
70447
70453
70456
70423
70350
70278
70244
70234
70225
70232
70248
70277
70282
70305
70341
70352
70362
70358
70357
70379
70383
70375
70385
70386
70402
70436
70426
70431
70470
70465
70480
70487
70499
70465
70407
70323
70277
70261
70274
70271
70294
70321
70336
70371
70394
70407
70423
70413
70412
70421
70425
70438
70444
70454
70466
70479
70495
70503
70528
70668
70720
70734
70734
70740
70693
70610
70555
70545
70508
70522
70540
70577
70578
70608
70630
70644
70658
70687
70658
70659
70669
70688
70677
70694
70705
70738
70742
70738
70746
70762
70768
70770
70792
70744
70658
70611
70571
70553
70566
70575
70579
70596
70610
70631
70658
70685
70683
70683
70696
70689
70701
70710
70729
70741
70725
70760
70769
70792
70794
70807
70815
70803
70745
70666
70598
70590
70574
70589
70581
70593
70651
70645
70676
70694
70725
70731
70734
70735
70744
70759
70747
70780
70792
70786
70814
70823
70816
70832
70867
70857
70880
70873
70804
70730
70664
70639
70643
70639
70664
70673
70679
70713
70738
70761
70780
70769
70782
70787
70807
70791
70824
70807
70833
70854
70839
70880
70884
70887
70889
70918
70931
70933
70875
70797
70723
70703
70696
70707
70710
70738
70735
70756
70799
70827
70840
70838
70843
70862
70846
70832
70875
70862
70873
70889
70905
70914
70908
70912
70905
70934
70912
70895
70807
70742
70699
70682
70674
70679
70680
70705
70696
70742
70751
70778
70797
70789
70806
70780
70786
70811
70798
70831
70843
70839
70851
70870
70865
70874
70892
70882
70826
70727
70667
70647
70621
70630
70635
70633
70655
70665
70699
70730
70741
70752
70748
70766
70742
70750
70758
70781
70798
70791
70812
70835
70843
70836
70854
70868
70833
70796
70692
70644
70615
70608
70597
70620
70616
70655
70664
70687
70728
70737
70743
70764
70757
70761
70764
70748
70756
70776
70809
70803
70813
70831
70835
70857
70865
70859
70838
70817
70715
70684
70635
70623
70617
70658
70674
70686
70697
70732
70755
70763
70774
70776
70760
70754
70766
70763
70774
70783
70773
70798
70772
70786
70797
70786
70821
70790
70763
70683
70628
70577
70559
70556
70574
70585
70602
70617
70623
70665
70686
70695
70670
70678
70689
70701
70697
70709
70706
70715
70718
70731
70742
70727
70754
70740
70727
70663
70593
70549
70535
70530
70531
70536
70556
70583
70599
70621
70623
70644
70651
70659
70674
70663
70657
70672
70671
70689
70705
70693
70700
70713
70723
70745
70756
70719
70654
70591
70562
70511
70542
70526
70533
70553
70563
70584
70597
70628
70641
70658
70642
70636
70625
70651
70656
70674
70669
70686
70683
70696
70703
70721
70726
70728
70762
70720
70672
70616
70553
70533
70533
70551
70563
70574
70575
70605
70615
70618
70625
70635
70630
70630
70617
70632
70624
70649
70626
70647
70640
70660
70659
70665
70674
70700
70699
70667
70582
70528
70478
70479
70473
70469
70496
70501
70492
70537
70549
70565
70565
70557
70548
70584
70569
70571
70571
70588
70585
70605
70610
70625
70610
70613
70627
70635
70606
70567
70467
70439
70420
70402
70412
70417
70424
70448
70463
70487
70494
70522
70548
70549
70540
70535
70557
70562
70556
70575
70589
70574
70580
70598
70611
70610
70623
70632
70595
70515
70455
70439
70424
70443
70442
70459
70464
70456
70493
70508
70519
70527
70534
70549
70532
70543
70558
70571
70575
70570
70577
70582
70594
70605
70614
70621
70618
70655
70605
70554
70455
70446
70426
70431
70433
70448
70480
70482
70499
70505
70550
70529
70517
70521
70533
70547
70544
70549
70560
70560
70560
70558
70557
70569
70577
70588
70603
70572
70500
70448
70406
70387
70373
70393
70406
70402
70422
70451
70475
70488
70511
70499
70521
70506
70500
70504
70525
70519
70526
70536
70556
70578
70581
70584
70608
70608
70570
70485
70439
70393
70389
70374
70378
70383
70404
70414
70431
70457
70480
70498
70511
70521
70508
70506
70523
70532
70550
70553
70583
70548
70582
70585
70599
70613
70628
70607
70579
70504
70446
70416
70401
70406
70407
70428
70427
70457
70472
70518
70545
70531
70536
70547
70533
70527
70549
70557
70573
70580
70600
70590
70592
70627
70627
70649
70648
70656
70641
70594
70514
70469
70446
70444
70420
70456
70463
70466
70502
70512
70528
70544
70552
70548
70535
70548
70535
70544
70557
70580
70582
70570
70593
70590
70597
70607
70607
70616
70585
70498
70447
70410
70416
70404
70407
70410
70423
70464
70476
70500
70519
70502
70529
70540
70523
70523
70551
70552
70560
70570
70572
70553
70570
70615
70599
70634
70613
70584
70490
70446
70441
70421
70424
70432
70429
70458
70438
70478
70492
70505
70532
70550
70547
70541
70559
70578
70567
70573
70587
70602
70607
70652
70633
70649
70670
70682
70682
70623
70546
70502
70465
70484
70453
70464
70469
70490
70510
70542
70575
70574
70598
70584
70588
70591
70603
70603
70606
70623
70634
70652
70654
70645
70666
70687
70699
70697
70716
70712
70662
70590
70549
70516
70512
70512
70514
70538
70551
70577
70588
70609
70639
70631
70639
70612
70645
70643
70651
70659
70659
70669
70681
70683
70683
70702
70694
70706
70718
70711
70658
70594
70535
70536
70517
70516
70512
70542
70570
70579
70606
70615
70629
70629
70636
70642
70634
70644
70641
70681
70690
70701
70705
70702
70728
70730
70732
70763
70772
70771
70681
70608
70554
70558
70531
70535
70561
70566
70575
70612
70633
70663
70654
70660
70676
70690
70680
70694
70687
70726
70726
70729
70760
70760
70740
70760
70770
70780
70784
70778
70748
70680
70629
70597
70598
70581
70596
70614
70625
70630
70656
70667
70696
70708
70693
70713
70703
70709
70720
70709
70720
70744
70760
70744
70759
70764
70760
70773
70769
70799
70793
70707
70644
70581
70578
70557
70568
70576
70590
70613
70621
70643
70655
70648
70673
70667
70670
70658
70693
70668
70673
70689
70686
70709
70708
70716
70716
70734
70754
70709
70658
70574
70537
70512
70501
70498
70511
70514
70518
70547
70571
70579
70599
70613
70616
70603
70601
70605
70631
70621
70632
70646
70656
70665
70663
70667
70684
70695
70671
70597
70543
70492
70469
70479
70483
70493
70515
70515
70532
70561
70592
70591
70585
70588
70604
70602
70600
70599
70627
70627
70641
70638
70665
70662
70679
70691
70675
70693
70666
70605
70546
70494
70486
70477
70493
70489
70494
70523
70546
70565
70582
70593
70581
70583
70573
70588
70611
70613
70614
70624
70629
70623
70635
70641
70644
70667
70649
70628
70578
70492
70452
70431
70430
70448
70424
70447
70468
70492
70505
70532
70548
70540
70526
70526
70531
70529
70543
70548
70566
70561
70567
70566
70598
70598
70605
70605
70553
70497
70414
70394
70367
70382
70379
70370
70398
70399
70415
70451
70452
70469
70500
70493
70486
70507
70490
70507
70528
70534
70534
70537
70543
70563
70582
70583
70574
70560
70517
70428
70383
70372
70369
70377
70372
70373
70379
70395
70424
70444
70472
70488
70481
70465
70460
70482
70479
70500
70503
70509
70536
70520
70535
70559
70552
70568
70585
70580
70534
70465
70407
70378
70344
70337
70359
70371
70414
70408
70430
70453
70467
70482
70459
70445
70466
70436
70449
70465
70435
70479
70495
70484
70504
70506
70514
70519
70524
70537
70522
70445
70375
70329
70306
70305
70304
70304
70323
70340
70347
70388
70401
70424
70417
70410
70432
70418
70423
70424
70440
70459
70461
70471
70475
70468
70493
70497
70515
70530
70485
70463
70390
70315
70293
70295
70301
70297
70308
70315
70347
70344
70395
70415
70405
70410
70409
70428
70414
70408
70425
70450
70446
70448
70465
70472
70482
70484
70512
70525
70551
70536
70460
70392
70322
70329
70305
70331
70335
70330
70338
70366
70392
70418
70427
70446
70443
70428
70430
70435
70446
70464
70454
70461
70463
70481
70490
70486
70490
70496
70504
70506
70498
70463
70376
70329
70292
70291
70285
70304
70308
70324
70337
70339
70363
70399
70385
70407
70385
70387
70385
70390
70403
70405
70411
70418
70414
70440
70451
70449
70459
70477
70440
70391
70324
70268
70248
70246
70244
70238
70261
70277
70293
70323
70354
70373
70367
70373
70378
70372
70385
70397
70393
70402
70412
70419
70420
70449
70448
70472
70463
70486
70477
70452
70383
70331
70294
70277
70281
70298
70288
70294
70337
70341
70350
70375
70401
70415
70399
70403
70416
70406
70406
70444
70445
70433
70450
70460
70472
70493
70495
70502
70508
70514
70513
70441
70379
70322
70313
70306
70312
70329
70353
70361
70373
70394
70424
70449
70443
70443
70440
70437
70438
70454
70464
70443
70458
70468
70474
70491
70481
70485
70520
70519
70460
70403
70348
70312
70279
70280
70311
70302
70313
70343
70365
70389
70408
70426
70447
70433
70439
70442
70453
70454
70449
70477
70487
70481
70508
70504
70520
70537
70537
70526
70477
70410
70350
70338
70324
70335
70333
70355
70366
70386
70395
70428
70454
70435
70468
70473
70484
70485
70478
70483
70497
70513
70507
70529
70549
70549
70550
70566
70569
70547
70491
70425
70351
70352
70344
70365
70367
70392
70397
70425
70431
70472
70494
70471
70501
70486
70501
70501
70494
70513
70534
70530
70540
70544
70565
70577
70569
70595
70596
70578
70557
70491
70446
70382
70379
70385
70383
70397
70411
70424
70453
70474
70493
70493
70486
70479
70490
70476
70496
70502
70502
70531
70533
70544
70536
70556
70538
70566
70579
70558
70496
70418
70361
70332
70343
70351
70341
70371
70385
70391
70416
70442
70459
70460
70480
70461
70467
70485
70491
70482
70499
70502
70525
70529
70523
70528
70539
70562
70555
70561
70501
70432
70372
70319
70330
70309
70316
70352
70352
70374
70393
70419
70427
70444
70456
70462
70461
70469
70479
70483
70498
70506
70502
70537
70515
70545
70546
70555
70555
70572
70574
70550
70457
70401
70357
70343
70353
70358
70356
70376
70394
70413
70426
70464
70502
70463
70482
70501
70497
70494
70515
70502
70525
70539
70559
70557
70573
70573
70569
70604
70607
70613
70589
70563
70490
70432
70405
70399
70385
70402
70426
70430
70459
70474
70502
70520
70537
70540
70507
70542
70530
70553
70534
70542
70561
70563
70578
70585
70592
70586
70600
70633
70605
70568
70499
70456
70413
70388
70397
70400
70409
70433
70442
70469
70490
70503
70531
70546
70529
70521
70524
70542
70536
70554
70581
70588
70573
70589
70597
70569
70601
70615
70610
70595
70520
70430
70388
70366
70355
70383
70405
70419
70409
70418
70462
70470
70501
70508
70519
70520
70509
70526
70535
70532
70551
70552
70568
70585
70579
70570
70604
70601
70612
70639
70605
70568
70496
70435
70381
70396
70359
70428
70422
70434
70448
70461
70481
70510
70532
70541
70539
70542
70557
70552
70564
70561
70572
70583
70602
70572
70609
70589
70621
70622
70631
70645
70656
70668
70657
70570
70503
70465
70422
70407
70409
70431
70438
70470
70464
70495
70504
70530
70546
70544
70533
70540
70536
70542
70565
70552
70562
70584
70569
70588
70591
70583
70613
70608
70594
70609
70600
70558
70487
70418
70365
70354
70358
70370
70367
70391
70392
70416
70423
70467
70465
70483
70472
70474
70477
70497
70489
70476
70488
70497
70499
70518
70517
70506
70524
70526
70534
70491
70445
70366
70301
70275
70263
70267
70267
70280
70289
70307
70319
70368
70373
70377
70381
70396
70372
70380
70384
70373
70401
70412
70428
70428
70422
70439
70443
70460
70461
70462
70446
70407
70324
70249
70221
70224
70218
70219
70223
70233
70253
70265
70313
70312
70341
70352
70337
70354
70344
70341
70355
70351
70377
70361
70354
70392
70371
70399
70392
70400
70396
70408
70421
70440
70435
70400
70327
70248
70222
70212
70190
70206
70209
70219
70261
70268
70308
70329
70326
70335
70350
70341
70366
70357
70371
70355
70389
70399
70395
70377
70405
70425
70431
70430
70445
70455
70455
70464
70440
70433
70334
70292
70276
70204
70256
70256
70261
70272
70289
70323
70345
70348
70382
70371
70399
70369
70379
70388
70395
70394
70404
70412
70441
70440
70439
70447
70470
70473
70461
70476
70490
70485
70423
70350
70291
70275
70261
70261
70261
70283
70283
70322
70339
70366
70384
70402
70434
70431
70423
70423
70434
70440
70448
70437
70454
70467
70478
70491
70476
70488
70502
70527
70530
70491
70460
70383
70333
70314
70293
70295
70306
70319
70333
70340
70385
70397
70412
70421
70439
70436
70437
70451
70449
70466
70465
70462
70481
70496
70501
70527
70525
70518
70552
70552
70539
70511
70442
70365
70331
70332
70317
70323
70335
70339
70371
70385
70413
70431
70428
70441
70457
70440
70450
70444
70464
70478
70477
70474
70484
70479
70496
70505
70522
70519
70520
70484
70416
70370
70301
70277
70261
70283
70287
70291
70302
70343
70360
70372
70398
70395
70393
70394
70393
70388
70411
70402
70430
70434
70401
70440
70446
70456
70455
70493
70469
70432
70362
70291
70242
70251
70233
70236
70244
70251
70275
70299
70302
70350
70342
70369
70376
70395
70381
70387
70391
70396
70423
70421
70435
70440
70466
70470
70479
70496
70505
70509
70441
70365
70311
70268
70260
70253
70269
70265
70311
70309
70335
70359
70389
70406
70387
70414
70402
70398
70412
70422
70427
70430
70432
70456
70464
70464
70470
70482
70509
70513
70525
70522
70457
70405
70336
70315
70277
70313
70343
70323
70339
70366
70367
70400
70427
70421
70428
70429
70447
70419
70455
70458
70462
70446
70445
70495
70490
70503
70529
70543
70549
70539
70555
70505
70419
70361
70330
70310
70308
70330
70346
70361
70367
70405
70435
70439
70453
70465
70470
70461
70476
70479
70487
70495
70496
70533
70528
70535
70552
70555
70571
70580
70594
70575
70514
70443
70393
70367
70359
70359
70372
70385
70383
70420
70420
70450
70479
70502
70510
70477
70491
70497
70510
70511
70512
70505
70524
70529
70540
70554
70584
70579
70605
70606
70612
70599
70539
70458
70447
70424
70404
70414
70427
70446
70453
70482
70498
70528
70551
70547
70542
70545
70551
70553
70562
70562
70569
70563
70578
70587
70617
70175
70181
70203
70227
70244
70250
70230
70175
70118
70077
70070
70066
70053
70053
70075
70096
70100
70140
70157
70167
70179
70180
70162
70173
70160
70165
70178
70166
70185
70182
70210
70202
70221
70233
70218
70229
70240
70219
70122
70054
70036
70018
70009
70001
70017
70023
70037
70056
70081
70100
70121
70118
70124
70132
70107
70128
70140
70143
70135
70149
70168
70186
70180
70205
70221
70209
70204
70218
70225
70186
70099
70047
70006
69979
69980
69982
69988
69991
70015
70040
70066
70094
70098
70123
70108
70113
70115
70128
70127
70130
70149
70159
70176
70173
70199
70211
70210
70196
70221
70244
70243
70237
70191
70108
70062
70045
70028
70023
70029
70066
70085
70082
70117
70130
70154
70160
70175
70159
70164
70152
70169
70155
70164
70166
70180
70189
70191
70191
70214
70220
70220
70230
70240
70211
70159
70092
70049
70011
70011
70009
69996
70005
70038
70046
70069
70090
70133
70132
70130
70118
70113
70121
70132
70141
70137
70157
70159
70173
70166
70189
70183
70209
70214
70212
70172
70113
70046
70013
69997
70004
69996
70003
70006
70026
70054
70063
70101
70107
70120
70151
70141
70129
70135
70128
70152
70143
70148
70157
70161
70178
70178
70190
70207
70203
70215
70206
70139
70075
70020
70007
69992
70015
70017
70029
70038
70043
70081
70099
70112
70130
70136
70133
70106
70127
70128
70137
70140
70131
70155
70166
70181
70184
70207
70220
70222
70242
70256
70263
70201
70129
70080
70055
70053
70044
70052
70076
70092
70103
70129
70150
70180
70165
70169
70190
70169
70167
70182
70191
70201
70181
70206
70202
70222
70233
70233
70231
70252
70268
70254
70271
70207
70120
70077
70045
70049
70038
70046
70063
70062
70105
70111
70122
70141
70163
70161
70162
70192
70165
70185
70177
70189
70204
70198
70219
70228
70231
70261
70260
70265
70281
70291
70232
70163
70101
70068
70062
70052
70044
70072
70073
70099
70107
70150
70171
70166
70199
70203
70203
70193
70206
70216
70226
70233
70229
70236
70261
70271
70264
70299
70299
70311
70329
70295
70238
70175
70112
70098
70082
70077
70092
70093
70115
70146
70150
70188
70187
70182
70229
70226
70219
70212
70220
70251
70219
70248
70249
70264
70253
70270
70289
70302
70298
70300
70287
70275
70193
70146
70093
70079
70069
70064
70089
70096
70110
70132
70128
70178
70181
70188
70196
70184
70162
70178
70187
70195
70182
70195
70199
70198
70229
70235
70241
70249
70257
70257
70213
70126
70067
70055
70028
70007
70028
70012
70032
70062
70074
70102
70111
70142
70148
70156
70139
70147
70136
70170
70163
70170
70171
70187
70191
70217
70221
70239
70228
70234
70261
70232
70162
70128
70080
70024
70027
70017
70039
70045
70069
70077
70117
70138
70158
70153
70177
70176
70186
70182
70187
70210
70205
70215
70216
70216
70247
70247
70246
70247
70261
70276
70297
70263
70221
70148
70088
70059
70036
70057
70072
70075
70102
70108
70149
70171
70174
70199
70216
70213
70218
70191
70219
70222
70224
70236
70246
70214
70239
70244
70245
70262
70258
70285
70269
70213
70142
70086
70072
70048
70048
70042
70062
70070
70084
70114
70135
70167
70156
70175
70169
70169
70179
70164
70185
70198
70207
70205
70185
70221
70236
70251
70253
70260
70251
70229
70151
70078
70042
70044
70042
70033
70051
70068
70073
70082
70105
70152
70165
70170
70170
70169
64089
70148
70161
70186
70194
70184
70192
70197
70226
70239
70226
70219
70238
70223
70179
70113
70082
70012
70037
70016
70029
70036
70056
70068
70068
70089
70115
70119
70145
70142
70147
70140
70159
70144
70164
70169
70159
70181
70185
70199
70221
70226
70230
70251
70248
70212
70161
70086
70053
70021
70016
70009
70031
70040
70045
70074
70111
70115
70154
70146
70157
70159
70147
70129
70147
70150
70167
70178
70190
70193
70192
70212
70220
70213
70246
70254
70261
70225
70161
70103
70052
70034
70024
70036
70036
70058
70068
70078
70107
70127
70150
70162
70182
70144
70154
70170
70164
70186
70178
70179
70195
70207
70209
70206
70237
70240
70228
70218
70173
70098
70060
70033
70005
70011
69994
70033
70066
70066
70068
70099
70129
70144
70146
70170
70150
70144
70162
70175
70184
70168
70194
70191
70213
70218
70242
70235
70238
70213
70181
70091
70060
70028
70012
70014
70022
70027
70051
70061
70087
70121
70131
70140
70162
70150
70152
70165
70205
70176
70172
70190
70187
70208
70209
70234
70271
70246
70248
70253
70227
70152
70092
70054
70044
70036
70048
70056
70062
70088
70106
70135
70154
70178
70183
70201
70197
70211
70206
70206
70214
70217
70221
70242
70259
70271
70268
70265
70294
70311
70296
70256
70204
70118
70083
70070
70071
70081
70097
70122
70143
70158
70177
70187
70205
70226
70211
70210
70207
70218
70218
70221
70232
70249
70245
70250
70256
70296
70295
70327
70318
70297
70257
70186
70126
70067
70083
70079
70103
70105
70119
70126
70149
70170
70190
70232
70217
70221
70211
70201
70234
70243
70219
70239
70253
70267
70254
70281
70271
70290
70310
70275
70296
70241
70148
70112
70074
70062
70083
70065
70065
70091
70106
70132
70154
70195
70185
70189
70199
70184
70194
70182
70202
70221
70225
70243
70252
70256
70263
70288
70283
70288
70302
70328
70282
70245
70170
70116
70061
70053
70054
70066
70078
70097
70113
70136
70144
70190
70199
70185
70217
70197
70224
70217
70224
70226
70233
70269
70270
70265
70270
70289
70296
70306
70309
70309
70334
70308
70250
70170
70111
70097
70089
70074
70088
70089
70121
70137
70159
70186
70226
70227
70237
70224
70221
70235
70238
70221
70226
70231
70247
70248
70268
70276
70291
70277
70274
70299
70279
70230
70165
70111
70064
70056
70031
70061
70059
70084
70095
70114
70140
70172
70187
70196
70179
70198
70187
70207
70214
70213
70220
70222
70264
70246
70271
70253
70269
70282
70272
70271
70190
70109
70063
70053
70027
70038
70050
70061
70070
70112
70125
70147
70185
70196
70210
70216
70202
70212
70210
70201
70213
70237
70220
70255
70263
70271
70298
70299
70314
70310
70273
70193
70122
70092
70071
70048
70058
70067
70074
70130
70137
70162
70196
70202
70220
70211
70221
70236
70233
70235
70237
70243
70246
70267
70270
70291
70280
70292
70311
70310
70311
70260
70199
70134
70101
70091
70084
70091
70107
70117
70150
70165
70203
70227
70253
70255
70243
70261
70247
70241
70268
70262
70260
70276
70287
70291
70298
70321
70321
70334
70327
70309
70227
70156
70114
70087
70084
70093
70098
70127
70126
70138
70160
70204
70214
70213
70246
70230
70243
70222
70211
70233
70257
70254
70272
70280
70272
70285
70296
70304
70311
70272
70199
70137
70098
70063
70039
70039
70046
70062
70078
70095
70119
70144
70168
70196
70183
70177
70189
70172
70181
70206
70204
70175
70215
70220
70232
70248
70252
70243
70278
70272
70209
70132
70062
70016
70006
70010
70005
70017
70004
70027
70064
70083
70113
70124
70131
70142
70132
70137
70147
70129
70155
70139
70161
70196
70162
70196
70214
70201
70211
70229
70236
70226
70178
70079
70018
69992
69982
69962
69969
69990
70023
70041
70049
70086
70099
70136
70109
70105
70114
70125
70129
70132
70152
70147
70171
70154
70171
70189
70191
70187
70193
70218
70218
70183
70123
70019
69990
69967
69964
69979
69992
70004
70024
70058
70067
70103
70134
70142
70144
70121
70128
70129
70144
70168
70167
70181
70185
70192
70193
70205
70236
70219
70253
70251
70190
70112
70067
70020
69992
70001
70001
70039
70047
70066
70087
70085
70145
70152
70171
70152
70177
70171
70169
70184
70203
70181
70201
70191
70212
70223
70215
70244
70252
70278
70287
70259
70197
70121
70059
70045
70014
70024
70042
70061
70084
70101
70105
70148
70166
70202
70200
70199
70200
70195
70205
70202
70212
70212
70228
70225
70241
70252
70277
70285
70301
70301
70295
70348
70284
70230
70133
70092
70056
70069
70070
70078
70106
70108
70126
70146
70178
70188
70232
70208
70232
70210
70229
70225
70235
70223
70243
70238
70263
70265
70274
70304
70314
70323
70329
70319
70361
70331
70275
70202
70140
70117
70090
70101
70095
70115
70130
70175
70164
70202
70237
70245
70258
70252
70257
70247
70261
70267
70263
70281
70284
70278
70285
70295
70308
70306
70304
70350
70357
70322
70266
70174
70145
70111
70092
70097
70115
70123
70140
70163
70180
70195
70232
70231
70233
70227
70240
70241
70249
70251
70263
70269
70276
70285
70300
70307
70319
70328
70334
70327
70298
70219
70148
70114
70075
70066
70057
70095
70098
70116
70134
70148
70181
70204
70225
70230
70247
70235
70218
70232
70239
70249
70245
70252
70276
70275
70288
70286
70319
70300
70318
70305
70241
70161
70107
70075
70035
70035
70058
70066
70071
70110
70115
70141
70174
70198
70214
70214
70208
70208
70207
70219
70225
70226
70232
70227
70257
70250
70281
70287
70313
70280
70301
70281
70202
70128
70074
70033
70022
70028
70037
70060
70081
70083
70112
70134
70143
70165
70175
70138
70127
70139
70126
70133
70145
70150
70183
70188
70185
70216
70211
70203
70220
70247
70210
70140
70038
70010
69982
69956
69952
69993
69995
70019
70049
70086
70115
70139
70143
70151
70153
70155
70138
70157
70157
70161
70184
70175
70211
70193
70215
70208
70238
70230
70212
70112
70053
69969
69967
69940
69943
69968
69963
69988
70014
70042
70057
70101
70119
70138
70120
70131
70133
70138
70138
70154
70170
70166
70187
70193
70199
70204
70253
70235
70225
70172
70076
70003
69972
69951
69942
69944
69973
69979
69988
70029
70065
70095
70100
70119
70119
70131
70123
70111
70117
70126
70131
70134
70145
70166
70161
70176
70187
70202
70208
70218
70164
70096
70023
69969
69952
69950
69958
69965
69990
70013
70025
70057
70106
70151
70137
70135
70121
70125
70108
70125
70165
70149
70151
70167
70183
70181
70209
70206
70231
70219
70233
70179
70106
70016
69968
69935
69920
69940
69942
69947
69976
70015
70023
70060
70083
70096
70106
70118
70102
70086
70089
70117
70119
70109
70127
70153
70156
70173
70182
70186
70205
70215
70164
70094
69993
69946
69912
69892
69908
69897
69932
69943
69963
69966
70024
70041
70061
70062
70065
70065
70057
70071
70076
70081
70100
70106
70117
70143
70120
70165
70172
70179
70203
70214
70207
70153
70094
69985
69925
69905
69900
69913
69910
69946
69957
69979
70025
70069
70094
70102
70114
70117
70115
70108
70116
70129
70145
70132
70165
70154
70173
70189
70198
70197
70213
70214
70249
70234
70188
70079
70026
69973
69950
69936
69960
69983
69988
70016
70042
70086
70111
70133
70153
70186
70231
70292
70375
70392
70372
70348
70266
70242
70208
70196
70129
70097
70066
70018
69932
69879
69766
69692
69638
69613
69609
69607
69606
69609
69622
69613
69600
69607
69637
69627
69604
69529
69457
69382
69363
69316
69288
69255
69239
69247
69244
69224
69216
69223
69183
69185
69157
69101
69029
68930
68881
68854
68804
68757
68727
68684
68675
68719
68764
68866
68895
68922
68951
68982
68994
69022
69019
69030
69070
69101
69144
69161
69177
69236
69305
69337
69374
69406
69381
69335
69324
69323
69339
69351
69369
69428
69445
69493
69555
69601
69598
69597
69593
69571
69571
69556
69560
69559
69565
69598
69636
69645
69682
69703
69719
69722
69706
69623
69555
69499
69482
69461
69436
69469
69478
69492
69485
69492
69524
69549
69577
69589
69576
69595
69598
69595
69630
69624
69639
69669
69687
69701
69701
69700
69668
69574
69503
69472
69451
69442
69413
69427
69446
69463
69480
69538
69561
69578
69634
37683
69635
69630
69623
69628
69619
69647
69676
69661
69694
69697
69712
69675
69596
69543
69498
69471
69481
69495
69502
69522
69549
69606
69639
69695
69724
69752
69785
69817
69765
69729
69718
69748
69812
70008
70108
70173
70154
70187
70096
69975
69882
69813
69776
69797
69798
69837
69895
69951
70028
70084
70164
70228
70246
70285
70339
70382
70389
70410
70433
70412
70428
70437
70453
70453
70391
70337
70264
70271
70298
70573
70920
71372
71940
74069
75898
76283
76093
75791
74428
75088
76113
76177
75989
74874
74805
73925
72541
72546
72733
72714
72704
72690
71390
70808
70313
70395
71099
72854
75720
74644
74719
73146
77221
76111
75486
76049
71931
75531
76229
76253
76527
76660
76860
77004
77042
76847
76579
76439
76226
76055
76125
75965
75694
75565
75360
75196
75207
75324
75348
75368
75316
75201
75151
75144
75156
75170
75244
75372
75444
75451
75443
75428
75414
75366
75352
75391
75420
75423
75285
75305
75180
75185
75175
75605
76097
76297
76493
76675
76661
76748
76805
76831
76817
76835
76872
76859
76773
76727
76725
76710
76673
76706
76703
76651
76618
76606
76568
76511
76405
76316
76225
76197
76177
76021
75683
75019
74351
73972
73756
74726
74996
75108
75567
75455
75893
75916
75814
76087
76310
76969
77522
77691
77460
77367
77210
77276
77273
77170
77292
77206
77081
77000
76791
76586
76423
76445
76557
76632
76688
76738
76837
76914
76950
76944
76877
76818
76759
76716
76659
76831
77222
77380
77597
77807
78010
78100
78088
78009
77918
77846
77722
77587
77526
77474
77454
77468
77464
77473
77480
77500
77562
77614
77662
77664
77747
77762
77778
77806
77780
77754
77691
77630
77562
77549
77532
77514
77507
77501
77521
77542
77558
77625
77639
77682
77719
77742
77778
77817
77811
77816
77802
77814
77815
77819
77781
77754
77725
77745
77747
77771
77791
77815
77858
77888
77930
77963
77978
77967
78013
78012
77996
78015
78047
78070
78107
78096
78093
78048
78013
77990
77998
77980
77962
77961
77971
78012
78015
78025
78015
78021
78037
78030
78035
78011
78032
78013
78019
78016
78008
77970
77958
77953
77947
77956
77945
77946
77943
77993
77986
77995
78008
78009
78006
77999
77972
77984
78003
77988
77989
78018
77984
77955
77897
77871
77869
77867
77876
77884
77920
77942
77982
77994
78011
78011
78008
78021
78021
78015
78028
78030
78049
78063
78046
77983
77952
77926
77896
77898
77912
77912
77949
77977
77987
78015
78028
78047
78073
78032
78057
78046
78069
78060
78084
78082
78060
78014
77991
77928
77926
77927
77921
77949
77992
77974
78015
78049
78068
78082
78094
78102
78080
78063
78049
78028
78006
77954
77807
77642
77545
77426
77336
77356
77381
77440
77473
77518
77609
77668
77729
77735
77720
77740
77746
77755
77717
77740
77754
77784
77763
77706
77637
77608
77620
77650
77669
77716
77736
77782
77799
77828
77854
77881
77891
77872
77902
77903
77928
77924
77943
77952
77916
77876
77816
77812
77827
77848
77849
77886
77916
77947
77973
77985
78010
77994
77985
78007
78013
78010
78019
78039
78047
78016
77964
77920
77890
77890
77875
77882
77910
77957
78002
78032
78028
78030
78018
77991
77993
78001
78002
77998
77982
77994
77997
77984
77908
77853
77844
77847
77841
77843
77879
77879
77918
77945
77967
77971
77941
77950
77937
77917
77922
77917
77947
77956
77952
77916
77820
77781
77774
77762
77792
77794
77829
77836
77886
77894
77891
77882
77859
77860
77857
77856
77852
77872
77880
77871
77882
77815
77746
77708
77699
77688
77702
77708
77722
77737
77759
77778
77778
77775
77750
77731
77715
77702
77727
77726
77723
77762
77749
77672
77632
77571
77574
77575
77577
77610
77619
77638
77677
77689
77700
77693
77684
77677
77683
77728
77731
77731
77711
77718
77736
77668
77610
77553
77523
77558
77546
77576
77607
77638
77664
77715
77744
77760
77752
77730
77726
77681
77618
77578
77576
77567
77545
77565
77547
77489
77412
77394
77374
77376
77382
77403
77409
77444
77428
77416
77415
77405
77403
77413
77437
77444
77451
77482
77500
77515
77536
77536
77555
77539
77482
77399
77361
77353
77373
77378
77418
77442
77459
77491
77499
77508
77509
77509
77515
77516
77526
77522
77516
77553
77549
77565
77546
77566
77569
77554
77543
77485
77401
77364
77344
77333
77351
77377
77384
77408
77424
77429
77426
77426
77413
77423
77426
77432
77435
77453
77473
77482
77482
77480
77492
77519
77531
77536
77556
77577
77512
77433
77396
77389
77424
77438
77449
77458
77503
77531
77558
77566
77556
77544
77561
77575
77570
77557
77587
77593
77624
77626
77643
77652
77661
77684
77691
77709
77711
77729
77628
77581
77528
77570
77562
77582
77605
77616
77662
77667
77687
77678
77667
77653
77660
77686
77676
77688
77713
77719
77733
77730
77739
77708
77706
77718
77738
77764
77727
77650
77598
77555
77550
77550
77558
77579
77610
77617
77608
77637
77632
77637
77605
77590
77587
77592
77588
77610
77592
77598
77610
77615
77629
77630
77640
77643
77670
77585
77541
77491
77512
77508
77529
77562
77567
77583
77614
77641
77633
77649
77661
77641
77670
77668
77670
77685
77693
77701
77694
77710
77704
77721
77739
77729
77666
77613
77575
77540
77537
77562
77565
77590
77592
77583
77620
77621
77606
77602
77609
77579
77603
77592
77626
77632
77628
77634
77647
77658
77682
77692
77662
77607
77526
77495
77509
77529
77559
77541
77577
77608
77633
77645
77643
77665
77662
77669
77680
77684
77684
77692
77690
77702
77680
77665
77615
77574
77572
77563
77492
77418
77406
77398
77388
77430
77426
77425
77442
77449
77467
77466
77454
77441
77437
77415
77396
77408
77411
77423
77458
77491
77505
77528
77538
77544
77548
77514
77459
77457
77484
77492
77519
77529
77544
77594
77592
77627
77643
77638
77626
77628
77643
77649
77640
77685
77695
77697
77711
77734
77733
77756
77769
77702
77652
77624
77614
77629
77643
77640
77658
77686
77719
77732
77736
77743
77731
77769
77754
77761
77776
77772
77789
77788
77810
77819
77823
77833
77856
77867
77868
77792
77761
77752
77759
77777
77806
77816
77844
77857
77900
77906
77921
77923
77912
77916
77915
77927
77939
77923
77935
77961
77963
77955
78002
78007
78030
78027
77971
77917
77885
77862
77841
77869
77856
77873
77864
77904
77891
77885
77878
77862
77842
77838
77835
77843
77815
77812
77815
77837
77840
77837
77851
77879
77857
77785
77723
77682
77725
77732
77748
77786
77816
77852
77876
77902
77898
77908
77901
77879
77886
77881
77880
77881
77895
77908
77917
77922
77906
77918
77923
77852
77776
77733
77734
77745
77747
77784
77806
77817
77849
77859
77877
77899
77922
77908
77923
77924
77939
77944
77949
77958
77970
77994
77983
78011
78013
77951
77884
77843
77829
77833
77850
77849
77846
77880
77868
77898
77910
77881
77887
77867
77847
77853
77855
77829
77810
77772
77779
77784
77757
77745
77723
77673
77598
77554
77543
77530
77549
77533
77566
77591
77604
77652
77658
77637
77648
77610
77612
77621
77639
77640
77649
77652
77668
77679
77679
77695
77651
77569
77540
77533
77525
77536
77559
77558
77565
77594
77634
77645
77647
77664
77639
77646
77656
77626
77632
77625
77637
77640
77653
77652
77677
77623
77540
77502
77476
77474
77495
77482
77514
77540
77574
77591
77594
77608
77613
77609
77621
77660
77654
77653
77665
77655
77692
77694
77704
77695
77644
77586
77554
77548
77533
77555
77564
77587
77605
77622
77644
77648
77646
77635
77631
77624
77619
77604
77620
77632
77632
77619
77640
77639
77644
77584
77509
77495
77476
77485
77479
77529
77524
77535
77563
77567
77553
77556
77538
77526
77505
77484
77501
77506
77518
77497
77512
77506
77522
77472
77413
77372
77350
77351
77337
77334
77301
77284
77291
77300
77295
77294
77297
77348
77362
77393
77352
77348
77470
77567
77575
77588
77602
77574
77560
77528
77527
77521
77510
77551
77599
77613
77589
77606
77623
77614
77621
77590
77596
77582
77577
77568
77575
77585
77568
77586
77595
77612
77598
77569
77550
77544
77569
77579
77608
77634
77670
77701
77723
77738
77714
77739
77730
77702
77704
77671
77665
77651
77650
77631
77650
77646
77653
77585
77538
77539
77547
77559
77587
77638
77696
77756
77763
77767
77735
77716
77670
77654
77639
77643
77634
77641
77652
77668
77683
77711
77735
77755
77734
77648
77590
77590
77584
77593
77643
77661
77668
77695
77715
77712
77682
77685
77656
77664
77672
77710
77721
77733
77765
77802
77831
77841
77881
77889
77846
77806
77766
77793
77801
77813
77827
77860
77888
77922
77947
77946
77945
77957
77952
77940
77959
77970
77977
77969
77983
77998
77995
78007
77987
77920
77856
77828
77821
77846
77845
77857
77884
77885
77892
77927
77912
77912
77919
77909
77893
77909
77911
77908
77928
77932
77936
77930
77944
77929
77832
77771
77754
77728
77713
77742
77776
77801
77800
77822
77841
77833
77854
77827
77816
77828
77851
77880
77877
77908
77889
77951
77950
77971
78016
77999
77974
77947
77915
77927
77927
77955
77985
78001
77988
78045
78038
78062
78068
78054
78049
78057
78065
78071
78080
78075
78072
78064
78059
78013
78005
78016
77983
77907
77850
77841
77818
77819
77768
77736
77710
77617
77555
77513
77489
77474
77462
77487
77507
77565
77592
77615
77686
77704
77760
77790
77820
77842
77844
77816
77808
77819
77830
77828
77862
77878
77877
77900
77941
77997
78038
78071
78059
77992
77986
78200
78495
78857
79087
79224
79297
79304
79266
79203
79151
79154
79068
78977
78900
78843
78824
78713
78707
78620
78468
78276
78101
77957
77767
77719
77714
77714
77704
77712
77716
77709
77694
77706
77710
77683
77692
77696
77651
77590
77545
77522
77518
77515
77530
77540
77521
77525
77544
77494
77489
77452
77438
77437
77428
77401
77408
77398
77406
77393
77376
77367
77344
77314
77226
77163
77118
77122
77138
77142
77133
77166
77184
77197
77196
77190
77205
77198
77187
77200
77221
77258
77302
77326
77316
77360
77400
77435
77416
77349
77279
77261
77247
77242
77250
77259
77296
77326
77372
77409
77432
77444
77428
77401
77426
77406
77411
77383
77418
77383
77392
77382
77375
77367
77325
77255
77154
77120
77113
77139
77130
77149
77147
77161
77163
77171
77149
77137
77100
77072
77054
77036
77019
76999
76983
76978
76985
76992
76997
76985
76935
76861
76814
76787
76806
76787
76808
76816
76839
76858
76864
76872
76879
76882
76876
76848
76853
76851
76838
76825
76843
76843
76833
76838
76825
76821
76740
76700
76629
76623
76625
76648
76668
76670
76689
76706
76700
76699
76712
76704
76674
76662
76668
76659
76663
76664
76675
76690
76682
76710
76694
76668
76623
76569
76520
76519
76516
76531
76536
76540
76585
76588
76613
76590
76567
76573
76541
76548
76527
76554
76545
76572
76540
76549
76556
76585
76594
76540
76483
76465
76475
76496
76536
76587
76607
76640
76676
76703
76721
76717
76700
76710
76694
76711
76689
76677
76666
76653
76678
76691
76673
76679
76605
76549
76519
76498
76512
76531
76540
76570
76605
76617
76648
76693
76684
76676
76715
76750
76786
76805
76855
76866
76920
76995
77021
77058
77094
77102
77068
77143
77238
77352
77475
77477
77365
77333
77327
77339
77359
77393
77392
77453
77446
77508
77560
77588
77658
77692
77731
77773
77792
77792
77755
77711
77699
28900
28873
28891
28904
28896
28866
28849
28813
28825
28784
77830
77834
77813
77810
77827
77844
77821
77836
77838
77847
77869
77842
77804
77738
77711
77658
77670
77660
77661
77681
77680