35,-7,-22
-3032,-30684,24
2495,-30720,23
2047,-30720,23
1945,-23058,31
27,-20,12
27,-16,16
29,-13,17
28,-9,20
28,-8,20
28,-3,23
29,-3,29
25,0,31
26,-1,35
25,0,34
21,3,36
21,0,35
18,1,34
15,2,32
16,1,32
17,3,33
16,6,29
15,4,28
15,4,25
16,8,26
18,6,25
21,10,25
21,13,22
21,16,23
20,16,23
26,22,26
25,25,22
27,24,25
22,23,26
11,24,29
9,25,31
5,19,30
-1,23,28
-3,25,29
-2,27,28
-1,31,26
6,31,22
12,25,20
19,22,18
15,15,18
13,7,17
12,3,16
13,-2,16
10,-3,14
11,-4,15
10,-5,9
12,-6,10
10,-5,9
8,-6,11
5,-6,8
3,-3,12
-1,-3,9
-6,-3,10
-10,-4,11
-16,-1,7
-14,-2,6
-22,0,3
-29,0,7
-35,3,6
-42,4,4
-46,7,1
-47,9,1
-50,10,1
-50,15,-4
-47,15,-5
-42,19,-9
-38,20,-12
-29,21,-13
-21,22,-13
-15,20,-15
-9,19,-14
-2,17,-12
2,15,-9
4,16,-10
5,15,-6
3,16,-3
3,17,0
0,14,1
1,21,4
-3,22,0
0,20,5
1,19,6
0,20,6
1,17,7
2,13,9
2,14,6
5,11,4
3,4,4
2,2,10
-1,-1,8
-6,-2,6
-6,-3,4
-11,-3,5
-15,-4,5
-15,-4,2
-20,-3,0
-21,-2,-2
-17,-1,-2
-16,-1,-9
-13,0,-4
-9,1,-8
-9,3,-12
-6,5,-11
-6,4,-14
0,2,-18
0,4,-17
0,2,-19
0,-3,-16
-8,-4,-10
-14,-6,-6
-21,-7,-8
-25,-10,0
-29,-10,10
-32,-9,10
-25,-5,9
-17,0,8
-12,0,9
-8,2,12
-2,0,17
-4,-2,17
-5,-6,20
-6,-7,22
-8,-10,19
-8,-11,20
-8,-11,15
-6,-11,15
-8,-11,10
-7,-7,10
-6,-4,10
-4,0,11
-4,5,7
-5,13,10
-6,20,11
-11,31,10
-16,35,11
-23,36,11
-32,31,10
-42,29,6
-41,24,4
-44,21,1
-48,21,-2
-49,17,1
-53,23,7
-55,25,14
-60,36,26
-64,45,35
-71,55,49
-80,69,64
-90,81,79
-106,94,88
-115,108,99
-130,126,107
-143,138,116
-153,152,120
-169,170,122
-177,186,123
-188,203,123
-197,215,123
-208,228,122
-223,241,121
-231,248,114
-243,256,115
-249,259,109
-256,266,106
-268,259,101
-279,256,91
-294,246,83
-311,224,76
-329,197,67
-353,168,57
-378,132,44
-402,81,34
-426,30,20
-449,-30,10
-475,-89,-3
-501,-162,-11
-527,-232,-24
-550,-309,-30
-576,-386,-35
-609,-460,-39
-635,-527,-40
-665,-581,-36
-694,-616,-31
-719,-641,-28
-741,-660,-20
-763,-678,-12
-782,-696,0
-801,-715,15
-801,-727,26
-796,-740,35
-790,-753,46
-780,-766,58
-772,-779,71
-759,-793,82
-748,-811,86
-755,-828,96
-778,-843,104
-818,-844,110
-853,-844,115
-892,-830,114
-946,-809,113
-984,-782,105
-1014,-747,94
-1033,-708,80
-1045,-672,67
-1049,-641,52
-1042,-612,33
-1024,-594,19
-1004,-577,2
-977,-567,-8
-948,-557,-18
-916,-553,-18
-883,-538,-13
-848,-513,0
-812,-483,17
-782,-445,37
-750,-401,64
-720,-354,91
-690,-306,124
-659,-262,156
-636,-216,183
-611,-177,212
-586,-146,228
-565,-123,243
-540,-107,254
-515,-104,262
-488,-107,270
-460,-120,273
-432,-135,274
-400,-145,274
-370,-159,280
-342,-165,282
-315,-176,283
-283,-164,291
-271,-142,300
-255,-121,306
-245,-116,319
-238,-101,325
-231,-84,333
-225,-62,338
-220,-62,347
-215,-67,352
-206,-63,355
-198,-73,364
-186,-84,371
-170,-90,375
-150,-98,380
-132,-116,387
-108,-123,389
-85,-125,395
-61,-131,397
-42,-115,404
-22,-100,403
-12,-79,413
1,-56,421
6,-29,425
12,-6,428
16,18,436
22,37,441
22,58,446
23,75,452
27,89,450
28,96,449
32,100,443
33,97,436
40,88,431
38,72,422
39,63,415
43,50,409
46,41,403
42,33,402
39,29,402
39,32,399
46,32,398
44,29,391
47,31,393
52,32,395
51,36,399
54,42,398
55,47,398
55,52,400
59,54,404
65,52,406
67,49,407
72,49,409
83,42,414
94,40,422
102,35,424
108,34,426
110,32,429
107,40,432
100,51,434
95,62,435
86,76,432
78,93,425
65,110,414
59,120,409
48,131,400
41,136,382
38,140,366
37,139,352
38,134,334
42,126,316
48,116,296
53,101,275
61,85,258
67,71,242
71,54,227
70,44,214
72,27,207
67,20,204
62,10,195
56,8,192
50,5,190
40,1,188
32,0,189
24,0,186
12,4,179
5,2,173
-1,3,166
-8,-2,162
-8,-2,160
-12,-7,155
-13,-10,150
-12,-13,143
-17,-15,141
-17,-18,139
-18,-25,138
-19,-21,137
-20,-26,136
-26,-25,140
-28,-24,139
-31,-24,142
-36,-20,141
-38,-18,140
-42,-17,141
-43,-14,136
-44,-14,140
-47,-12,135
-50,-10,133
-48,-11,131
-45,-14,129
-46,-18,127
-45,-22,120
-43,-29,116
-43,-40,114
-44,-51,110
-45,-61,109
-44,-67,108
-45,-72,112
-48,-76,112
-51,-83,114
-49,-84,112
-44,-88,109
-40,-93,107
-38,-100,109
-35,-111,109
-36,-117,105
-41,-119,110
-38,-122,106
-43,-123,105
-51,-123,104
-53,-125,104
-54,-123,102
-52,-123,101
-49,-124,101
-44,-122,98
-39,-123,97
-33,-119,95
-30,-116,93
-24,-111,93
-19,-106,91
-21,-100,95
-22,-96,97
-22,-88,96
-25,-83,98
-28,-78,99
-26,-74,97
-26,-71,96
-24,-66,96
-20,-67,93
-18,-63,88
-13,-68,84
-7,-66,81
0,-67,74
5,-68,68
8,-70,63
12,-71,59
14,-72,61
13,-74,52
13,-77,56
14,-80,53
13,-82,55
11,-87,56
11,-91,54
9,-94,57
8,-98,52
10,-105,51
8,-107,54
6,-115,50
10,-121,47
16,-122,42
22,-127,38
27,-130,32
31,-133,28
37,-137,26
43,-140,23
47,-141,18
50,-141,17
52,-139,18
53,-136,18
55,-136,15
58,-130,19
56,-129,22
57,-127,27
58,-121,31
56,-122,33
57,-119,34
57,-115,36
59,-110,42
60,-107,44
59,-98,41
58,-93,41
60,-83,40
63,-75,38
65,-69,38
64,-62,43
65,-61,37
68,-54,35
67,-57,33
67,-51,32
62,-47,28
63,-51,28
63,-50,21
61,-50,17
63,-54,15
64,-59,12
62,-60,10
61,-63,11
59,-64,12
54,-61,10
50,-57,13
44,-52,16
43,-51,21
41,-49,27
37,-51,30
36,-50,32
38,-51,35
35,-53,38
40,-60,42
38,-62,40
35,-65,41
34,-71,42
27,-75,40
19,-78,38
10,-81,39
1,-79,36
-5,-77,32
-18,-74,26
-24,-71,25
-33,-71,17
-41,-64,12
-47,-58,11
-54,-51,1
-50,-51,-3
-51,-46,-12
-47,-46,-13
-44,-49,-18
-45,-49,-23
-42,-54,-26
-43,-59,-29
-44,-65,-29
-44,-66,-29
-47,-71,-26
-51,-74,-25
-51,-76,-24
-51,-76,-19
-50,-78,-17
-51,-73,-14
-49,-71,-14
-46,-67,-14
-41,-68,-17
-36,-65,-15
-33,-65,-16
-27,-65,-17
-26,-67,-17
-26,-74,-18
-20,-74,-15
-15,-78,-17
-16,-78,-15
-16,-82,-17
-13,-82,-17
-12,-82,-20
-11,-85,-16
-14,-82,-20
-14,-79,-22
-12,-80,-26
-11,-81,-26
-6,-81,-38
0,-81,-36
4,-82,-40
11,-82,-43
15,-83,-48
18,-86,-53
26,-89,-57
34,-89,-64
42,-90,-64
44,-94,-64
45,-96,-61
49,-94,-58
50,-87,-53
48,-82,-49
48,-69,-40
52,-64,-40
62,-60,-39
74,-56,-37
87,-54,-33
101,-58,-32
116,-65,-29
121,-71,-27
131,-76,-27
137,-85,-24
141,-93,-18
143,-99,-9
140,-107,-4
137,-109,7
131,-110,11
122,-112,21
117,-113,29
110,-107,35
106,-101,41
101,-93,42
97,-79,43
93,-63,45
88,-49,45
83,-32,46
80,-18,41
75,-1,45
71,11,41
67,26,39
69,34,37
62,45,35
62,53,30
63,62,28
64,68,27
69,70,25
69,74,22
72,77,18
77,77,17
82,74,19
83,72,19
87,71,23
91,68,24
94,67,28
99,71,34
101,70,42
105,77,52
114,83,60
121,96,69
129,112,77
141,130,88
156,146,104
169,167,112
187,181,127
200,195,139
210,209,150
221,221,160
232,234,167
237,240,175
243,246,180
249,253,182
249,259,181
252,263,183
256,269,183
257,279,182
258,285,181
260,292,179
259,302,176
262,306,177
263,311,176
263,318,177
264,325,178
266,330,180
268,337,185
266,335,182
268,334,184
268,331,177
268,328,172
267,321,167
263,309,164
258,297,164
249,292,159
244,286,157
234,283,155
228,284,149
221,287,140
221,294,132
224,297,119
223,291,113
222,288,110
223,282,108
221,274,108
223,263,110
219,254,109
222,251,108
223,252,108
230,253,111
236,260,109
242,271,110
244,282,110
250,294,110
259,306,108
266,320,110
273,329,110
279,334,111
288,337,106
294,344,108
303,350,102
305,346,100
311,344,102
309,340,96
312,332,94
315,333,89
316,337,84
314,344,86
310,363,87
309,384,88
314,402,93
310,427,89
309,451,85
309,474,82
305,497,80
304,517,71
301,531,60
297,546,56
292,562,50
284,570,40
275,583,32
264,595,23
256,606,16
247,613,14
239,621,14
229,635,8
224,651,6
214,661,6
210,672,1
206,686,0
207,702,0
202,715,3
206,721,5
208,735,8
211,775,13
215,792,21
219,799,29
223,796,37
229,803,52
235,806,64
240,811,76
246,809,91
253,811,98
255,811,106
265,813,114
270,814,116
277,818,115
282,824,113
286,828,112
289,828,115
289,821,116
287,822,119
287,821,122
285,818,121
285,817,119
279,816,118
273,817,114
266,825,115
262,830,115
255,836,107
254,838,104
254,836,96
259,835,85
267,832,77
272,828,70
281,819,67
284,815,59
286,807,53
290,797,50
289,793,46
286,788,44
284,783,46
277,782,42
269,781,45
263,784,45
255,782,43
247,780,42
243,780,40
232,779,32
229,775,24
222,770,20
214,764,13
207,762,6
205,756,-5
204,748,-11
210,740,-18
211,734,-26
212,725,-32
210,710,-36
209,696,-39
207,681,-41
208,663,-44
210,646,-48
211,628,-45
209,605,-47
209,581,-46
209,555,-47
216,525,-45
219,494,-46
223,460,-50
228,430,-51
230,398,-48
235,363,-44
235,333,-41
244,296,-33
250,263,-29
256,222,-23
257,187,-15
262,156,-11
268,124,-3
269,95,2
268,74,5
263,53,8
255,41,11
246,32,12
236,28,14
222,28,16
206,33,15
190,39,12
175,50,6
162,54,4
147,70,-1
136,82,-8
120,90,-15
108,100,-18
94,105,-26
88,113,-30
80,110,-38
72,108,-41
63,105,-46
56,100,-48
52,95,-48
47,91,-52
44,89,-48
39,93,-46
39,93,-42
34,92,-37
31,90,-32
28,81,-26
27,74,-14
23,64,-6
19,54,1
16,45,4
13,35,9
3,27,15
-11,18,22
-31,6,39
-57,-2,50
-86,-18,58
-113,-35,75
-140,-52,87
-165,-70,96
-191,-84,105
-210,-98,114
-231,-103,116
-252,-111,124
-273,-115,126
-288,-119,125
-302,-128,126
-317,-134,127
-334,-146,134
-347,-161,141
-362,-179,153
-380,-197,161
-398,-225,172
-423,-253,187
-449,-288,196
-477,-321,203
-502,-354,211
-525,-384,214
-545,-410,218
-568,-432,211
-583,-448,202
-600,-454,190
-607,-460,172
-619,-467,149
-626,-481,127
-637,-497,102
-653,-509,71
-673,-519,42
-703,-520,8
-738,-515,-24
-783,-502,-59
-833,-489,-95
-891,-468,-136
-958,-453,-171
-1026,-435,-207
-1096,-418,-245
-1169,-406,-278
-1243,-397,-315
-1320,-390,-348
-1390,-388,-379
-1464,-384,-418
-1532,-376,-452
-1604,-366,-486
-1680,-358,-518
-1758,-351,-552
-1839,-343,-588
-1923,-341,-621
-2011,-339,-657
-2098,-342,-690
-2180,-347,-731
-2257,-355,-773
-2325,-359,-817
-2389,-367,-859
-2446,-365,-903
-2498,-358,-946
-2546,-348,-986
-2597,-333,-1018
-2652,-317,-1043
-2713,-292,-1066
-2779,-259,-1086
-2839,-220,-1110
-2899,-175,-1127
-2962,-126,-1141
-3020,-77,-1157
-3078,-29,-1166
-3132,19,-1172
-3182,64,-1171
-3226,107,-1169
-3261,148,-1167
-3284,175,-1166
-3290,200,-1164
-3292,215,-1158
-3292,232,-1149
-3292,242,-1135
-3294,237,-1114
-3303,240,-1094
-3321,231,-1063
-3347,226,-1035
-3378,215,-1000
-3418,199,-970
-3461,184,-942
-3507,156,-915
-3569,129,-883
-3626,100,-859
-3682,65,-838
-3730,30,-821
-3770,-3,-805
-3792,-29,-789
-3807,-50,-778
-3816,-71,-765
-3822,-92,-753
-3825,-113,-742
-3828,-135,-735
-3823,-163,-726
-3811,-187,-721
-3788,-212,-717
-3754,-231,-716
-3704,-228,-711
-3646,-212,-701
-3577,-176,-693
-3505,-136,-677
-3432,-90,-661
-3357,-42,-643
-3280,-1,-622
-3203,39,-600
-3129,76,-574
-3055,107,-546
-2988,136,-515
-2920,161,-485
-2859,178,-448
-2804,192,-417
-2750,201,-384
-2700,202,-350
-2649,193,-324
-2600,179,-294
-2553,159,-266
-2506,136,-240
-2455,110,-220
-2405,78,-196
-2351,47,-180
-2297,9,-163
-2242,-33,-150
-2188,-76,-137
-2132,-121,-127
-2079,-175,-114
-2029,-238,-97
-1980,-301,-83
-1936,-373,-64
-1892,-446,-48
-1852,-518,-28
-1809,-586,-10
-1769,-642,10
-1725,-691,27
-1679,-732,47
-1636,-762,64
-1588,-783,82
-1547,-800,98
-1498,-808,116
-1454,-808,128
-1404,-803,138
-1352,-791,150
-1305,-774,158
-1254,-755,167
-1210,-735,177
-1171,-712,186
-1141,-693,201
-1113,-669,216
-1090,-643,226
-1076,-619,239
-1058,-595,248
-1042,-576,252
-1020,-559,256
-996,-539,257
-977,-532,260
-956,-521,261
-943,-519,263
-928,-520,263
-916,-523,266
-902,-538,269
-896,-553,272
-896,-577,277
-896,-605,282
-900,-638,291
-909,-674,303
-916,-715,312
-927,-766,318
-935,-812,325
-940,-863,327
-944,-908,330
-945,-959,335
-943,-1007,340
-943,-1051,343
-944,-1099,353
-948,-1143,359
-955,-1188,366
-961,-1227,372
-966,-1262,380
-963,-1290,384
-956,-1318,387
-947,-1339,392
-944,-1354,396
-940,-1373,407
-943,-1383,414
-950,-1382,425
-966,-1377,435
-981,-1368,446
-1007,-1359,457
-1033,-1354,467
-1066,-1353,476
-1101,-1362,483
-1135,-1377,487
-1159,-1399,488
-1183,-1423,486
-1198,-1450,481
-1205,-1476,470
-1207,-1506,464
-1205,-1528,457
-1203,-1540,448
-1195,-1548,441
-1186,-1560,434
-1184,-1577,432
-1190,-1599,427
-1197,-1625,426
-1211,-1654,428
-1237,-1682,427
-1267,-1724,430
-1300,-1771,430
-1326,-1809,429
-1343,-1839,423
-1348,-1868,420
-1340,-1902,413
-1319,-1945,407
-1292,-1996,405
-1251,-2045,406
-1215,-2081,411
-1176,-2106,421
-1136,-2119,428
-1101,-2117,439
-1069,-2100,450
-1043,-2071,460
-1031,-2044,474
-1028,-2018,487
-1039,-2002,500
-1059,-1980,512
-1077,-1950,522
-1096,-1911,525
-1113,-1879,528
-1128,-1851,534
-1146,-1830,533
-1160,-1815,529
-1169,-1802,518
-1169,-1814,510
-1150,-1839,500
-1121,-1868,491
-1079,-1892,481
-1034,-1919,468
-989,-1945,457
-944,-1956,440
-905,-1937,420
-873,-1909,402
-853,-1877,377
-840,-1842,353
-833,-1809,323
-823,-1777,298
-813,-1748,270
-798,-1714,247
-778,-1669,220
-745,-1632,200
-699,-1585,176
-649,-1522,153
-594,-1447,129
-536,-1361,103
-483,-1273,82
-433,-1191,65
-397,-1114,51
-371,-1051,38
-348,-1009,30
-334,-974,25
-326,-945,19
-318,-925,14
-307,-910,11
-291,-892,4
-265,-872,4
-241,-848,-5
-220,-814,-12
-198,-775,-16
-181,-731,-15
-168,-694,-15
-158,-667,-16
-157,-639,-13
-154,-620,-7
-147,-606,-1
-144,-591,11
-137,-581,23
-131,-566,39
-125,-554,59
-123,-541,79
-120,-533,97
-120,-526,118
-116,-524,138
-115,-524,153
-111,-516,168
-103,-514,186
-91,-517,201
-72,-527,215
-51,-539,236
-25,-553,249
1,-571,266
27,-585,281
50,-602,299
63,-614,310
79,-628,323
86,-635,333
95,-638,336
94,-630,345
83,-619,344
71,-608,343
55,-603,344
36,-586,340
11,-579,341
-13,-575,340
-37,-570,333
-48,-571,330
-51,-567,320
-46,-563,316
-38,-561,312
-26,-556,307
-12,-553,307
2,-546,301
15,-539,303
30,-528,303
42,-518,303
51,-509,309
58,-501,315
62,-488,310
63,-477,316
62,-466,311
55,-450,308
47,-432,304
44,-412,297
38,-390,288
31,-367,284
24,-348,274
21,-329,264
23,-310,255
27,-298,250
32,-283,247
35,-277,241
32,-269,238
31,-254,233
27,-243,228
15,-224,224
2,-211,221
-10,-193,215
-29,-173,210
-45,-154,205
-61,-131,197
-80,-103,187
-92,-79,179
-104,-57,170
-111,-38,159
-116,-23,154
-121,-12,150
-128,3,144
-135,25,151
-145,51,146
-157,79,145
-170,100,145
-181,123,140
-193,148,138
-199,165,132
-203,184,123
-207,196,125
-207,207,116
-205,211,114
-203,213,116
-200,217,117
-203,218,116
-206,216,118
-214,214,117
-220,211,119
-230,208,120
-239,214,117
-247,222,115
-258,230,113
-260,235,104
-255,236,100
-248,231,90
-233,216,86
-218,204,79
-201,187,71
-191,176,69
-187,156,67
-185,149,69
-184,140,66
-184,132,69
-191,121,77
-194,113,84
-195,104,97
-194,100,115
-188,91,132
-178,78,154
-172,59,175
-162,34,202
-156,15,225
-156,-4,251
-160,-14,284
-165,-19,313
-174,-17,341
-184,-7,367
-197,-1,397
-209,12,424
-222,22,450
-237,34,476
-255,42,497
-271,44,519
-288,47,539
-306,52,552
-325,54,564
-341,65,582
-359,85,597
-367,117,607
-373,153,617
-378,187,624
-378,223,633
-376,257,637
-378,289,646
-376,319,651
-377,347,659
-377,377,664
-381,404,672
-386,436,679
-389,462,689
-391,490,700
-395,510,704
-399,532,713
-404,551,726
-413,567,736
-418,586,741
-423,606,752
-427,637,764
-420,670,783
-409,711,800
-392,759,826
-372,800,853
-357,839,887
-339,874,920
-327,900,950
-319,922,979
-318,935,1008
-325,938,1032
-341,933,1053
-359,917,1065
-384,901,1075
-407,893,1078
-424,906,1078
-429,934,1075
-421,980,1068
-409,1028,1062
-386,1077,1055
-355,1128,1055
-325,1175,1052
-295,1209,1057
-271,1236,1060
-252,1250,1068
-238,1254,1076
-232,1246,1078
-237,1225,1086
-258,1211,1088
-286,1201,1086
-307,1185,1091
-323,1182,1098
-339,1195,1104
-349,1217,1112
-352,1243,1120
-347,1268,1124
-338,1284,1132
-326,1292,1138
-307,1293,1143
-286,1282,1151
-264,1268,1157
-246,1240,1164
-233,1201,1172
-225,1160,1176
-230,1126,1182
-238,1097,1184
-246,1082,1187
-255,1079,1188
-268,1103,1184
-270,1139,1178
-261,1177,1168
-257,1209,1156
-248,1233,1145
-232,1245,1122
-217,1253,1103
-198,1255,1079
-180,1241,1051
-161,1217,1028
-150,1182,1005
-138,1145,981
-129,1105,957
-127,1095,935
-127,1131,913
-134,1191,894
-144,1255,877
-152,1319,856
-157,1380,834
-161,1440,814
-165,1499,793
-168,1555,770
-172,1611,747
-175,1654,725
-185,1697,703
-191,1719,685
-192,1730,667
-197,1725,652
-195,1708,634
-186,1679,622
-180,1637,612
-168,1588,597
-154,1532,588
-147,1465,583
-150,1394,580
-155,1303,578
-162,1213,585
-176,1116,590
-195,1037,600
-212,968,610
-227,916,612
-245,885,618
-264,861,618
-283,844,620
-294,835,616
-302,829,608
-295,828,596
-294,834,581
-287,836,561
-280,844,539
-280,854,521
-279,864,506
-285,874,488
-291,882,472
-299,884,460
-305,886,443
-304,890,430
-304,888,420
-303,887,410
-300,879,404
-293,870,398
-288,857,393
-277,840,384
-267,833,375
-247,834,365
-216,832,351
-176,825,342
-139,817,336
-98,801,332
-63,774,332
-31,740,341
-5,702,353
19,659,365
37,613,378
48,567,394
60,521,411
62,478,423
69,440,440
70,410,452
68,392,463
71,374,465
73,360,465
76,355,462
81,351,454
92,347,448
102,339,436
112,342,428
122,344,413
130,343,399
137,345,389
143,346,380
145,351,371
136,356,358
127,366,351
109,377,344
86,389,335
53,403,335
17,420,330
-18,436,328
-55,451,323
-93,474,319
-126,493,312
-159,513,301
-184,528,294
-207,544,283
-227,553,278
-250,566,269
-267,573,264
-288,582,257
-306,592,251
-324,608,249
-341,632,243
-364,658,238
-383,686,233
-402,711,231
-427,744,227
-449,777,226
-472,810,223
-501,843,219
-533,879,210
-569,915,203
-608,948,193
-652,984,181
-695,1014,168
-745,1040,152
-798,1060,136
-851,1072,119
-898,1078,104
-946,1087,79
-984,1094,53
-1021,1096,26
-1051,1097,-4
-1082,1096,-34
-1109,1094,-64
-1135,1088,-100
-1155,1082,-130
-1189,1078,-159
-1223,1076,-188
-1262,1079,-216
-1307,1088,-244
-1353,1099,-271
-1410,1113,-294
-1475,1124,-315
-1541,1130,-331
-1626,1134,-343
-1715,1134,-356
-1814,1132,-371
-1921,1141,-383
-2037,1147,-404
-2152,1159,-428
-2270,1163,-452
-2377,1165,-484
-2476,1165,-517
-2566,1160,-544
-2654,1155,-583
-2731,1147,-624
-2802,1145,-667
-2870,1144,-711
-2938,1143,-757
-3001,1143,-800
-3064,1143,-837
-3138,1140,-874
-3210,1143,-909
-3295,1141,-942
-3384,1144,-975
-3478,1144,-1008
-3581,1151,-1041
-3694,1157,-1071
-3816,1163,-1103
-3950,1169,-1135
-4092,1170,-1166
-4236,1166,-1195
-4394,1166,-1225
-4554,1161,-1255
-4716,1149,-1286
-4874,1139,-1319
-5031,1120,-1348
-5188,1097,-1380
-5341,1070,-1407
-5496,1035,-1431
-5654,996,-1459
-5803,962,-1485
-5941,929,-1509
-6064,905,-1534
-6172,874,-1556
-6262,850,-1583
-6335,823,-1610
-6380,803,-1632
-6408,782,-1653
-6416,765,-1674
-6407,749,-1687
-6385,732,-1697
-6352,714,-1703
-6312,694,-1697
-6269,672,-1687
-6221,643,-1666
-6172,612,-1639
-6116,581,-1608
-6050,547,-1571
-5987,514,-1527
-5913,480,-1482
-5834,446,-1430
-5752,407,-1380
-5656,369,-1327
-5555,333,-1273
-5444,287,-1224
-5329,247,-1175
-5209,208,-1121
-5090,166,-1075
-4965,127,-1022
-4840,90,-974
-4712,57,-924
-4583,30,-874
-4463,2,-820
-4348,-17,-761
-4240,-32,-707
-4139,-42,-648
-4051,-47,-589
-3972,-43,-529
-3902,-34,-465
-3839,-21,-400
-3783,-9,-342
-3736,11,-279
-3698,27,-222
-3672,43,-170
-3647,56,-125
-3627,69,-81
-3612,79,-44
-3606,88,-9
-3613,88,19
-3623,81,48
-3639,67,68
-3658,53,83
-3679,31,98
-3699,4,105
-3712,-21,110
-3722,-50,105
-3723,-89,101
-3719,-128,90
-3716,-168,76
-3710,-208,66
-3704,-255,53
-3704,-303,43
-3702,-351,27
-3701,-398,19
-3704,-442,14
-3707,-486,6
-3710,-529,4
-3713,-566,2
-3711,-608,-1
-3717,-644,-3
-3715,-678,-4
-3713,-706,-11
-3712,-731,-16
-3707,-745,-21
-3708,-760,-30
-3710,-773,-38
-3709,-786,-45
-3706,-788,-53
-3705,-793,-63
-3697,-796,-72
-3698,-799,-82
-3696,-799,-91
-3692,-800,-97
-3682,-803,-110
-3668,-800,-124
-3646,-798,-139
-3611,-794,-155
-3573,-785,-167
-3526,-772,-177
-3476,-762,-181
-3426,-751,-181
-3389,-750,-177
-3354,-748,-169
-3328,-752,-154
-3302,-763,-143
-3268,-778,-132
-3227,-801,-124
-3177,-828,-112
-3129,-856,-104
-3069,-876,-98
-3005,-893,-86
-2935,-903,-81
-2861,-911,-75
-2793,-908,-67
-2729,-906,-50
-2676,-895,-28
-2636,-884,-3
-2600,-878,22
-2563,-875,54
-2524,-873,79
-2482,-873,100
-2430,-877,125
-2371,-884,141
-2295,-889,155
-2213,-893,169
-2118,-896,175
-2021,-897,181
-1926,-898,184
-1832,-888,188
-1751,-868,196
-1683,-845,206
-1632,-818,227
-1597,-776,245
-1579,-730,272
-1562,-672,295
-1554,-613,319
-1543,-545,347
-1538,-474,371
-1530,-400,392
-1523,-329,408
-1511,-259,426
-1500,-202,447
-1488,-147,460
-1473,-99,469
-1459,-58,479
-1453,-29,484
-1458,-16,492
-1475,-14,497
-1505,-22,504
-1556,-41,516
-1598,-44,513
-1610,-46,492
-1598,-46,466
-1573,-41,427
-1543,-35,395
-1511,-37,364
-1475,-52,334
-1435,-73,303
-1392,-102,278
-1344,-136,256
-1294,-177,237
-1236,-216,223
-1171,-256,205
-1098,-292,187
-1019,-325,174
-937,-345,160
-856,-350,148
-787,-341,135
-731,-322,127
-686,-289,121
-658,-253,120
-639,-210,121
-631,-167,126
-631,-122,132
-634,-80,138
-639,-37,147
-651,-1,155
-654,21,163
-656,42,169
-653,54,175
-644,62,173
-627,67,168
-600,74,160
-568,76,156
-529,75,147
-486,73,131
-438,68,124
-384,65,112
-335,61,99
-286,59,89
-242,56,83
-203,56,79
-172,53,80
-147,55,84
-128,61,90
-111,67,98
-93,76,106
-71,87,119
-51,100,130
-19,113,144
19,126,156
69,142,167
133,158,182
212,177,196
300,200,214
404,222,244
508,243,274
620,268,312
731,296,357
839,324,404
934,353,455
1015,383,509
1082,408,564
1132,434,620
1172,457,671
1209,483,715
1241,502,752
1264,518,784
1274,537,805
1277,556,823
1276,560,827
1264,562,825
1247,553,808
1224,538,787
1190,511,755
1141,485,717
1089,455,671
1031,425,624
971,398,571
909,368,510
851,335,441
795,300,376
743,262,307
694,231,230
650,204,155
600,176,80
554,151,5
502,128,-64
450,114,-135
395,91,-200
334,70,-258
266,52,-317
191,38,-374
109,21,-424
11,8,-465
-97,-3,-513
-206,-16,-560
-322,-30,-604
-441,-38,-647
-563,-52,-685
-684,-64,-720
-818,-77,-758
-948,-86,-792
-1078,-96,-823
-1199,-100,-852
-1314,-101,-880
-1416,-102,-907
-1505,-94,-937
-1585,-90,-961
-1645,-87,-986
-1692,-85,-1013
-1727,-99,-1034
-1743,-121,-1057
-1752,-154,-1072
-1752,-193,-1082
-1749,-231,-1088
-1747,-268,-1084
-1747,-302,-1077
-1748,-324,-1062
-1752,-340,-1042
-1760,-343,-1018
-1768,-336,-996
-1777,-329,-963
-1786,-307,-936
-1795,-284,-903
-1799,-252,-873
-1800,-218,-850
-1786,-188,-824
-1767,-159,-804
-1732,-133,-786
-1697,-119,-773
-1656,-116,-762
-1612,-118,-753
-1571,-132,-737
-1529,-154,-722
-1489,-176,-700
-1448,-193,-679
-1413,-211,-662
-1373,-221,-638
-1334,-223,-617
-1294,-228,-596
-1255,-227,-579
-1218,-230,-556
-1176,-232,-538
-1141,-234,-522
-1106,-241,-503
-1073,-247,-484
-1040,-259,-471
-1012,-273,-450
-990,-296,-431
-969,-323,-414
-951,-353,-395
-935,-384,-380
-924,-409,-365
-912,-424,-351
-912,-433,-335
-912,-431,-325
-912,-422,-315
-907,-406,-312
-900,-381,-307
-889,-352,-305
-874,-314,-306
-848,-274,-313
-808,-232,-321
-762,-199,-329
-705,-164,-336
-643,-137,-341
-583,-104,-339
-529,-64,-325
-481,-33,-312
-440,0,-290
-407,28,-265
-380,53,-239
-359,76,-213
-344,93,-180
-329,110,-158
-315,118,-137
-299,123,-118
-279,115,-102
-257,106,-93
-235,94,-85
-203,75,-80
-183,52,-78
-156,30,-73
-134,5,-69
-115,-17,-59
-109,-38,-48
-99,-56,-32
-99,-72,-17
-104,-78,4
-114,-82,28
-123,-87,53
-136,-91,75
-151,-85,98
-162,-82,117
-173,-74,137
-180,-66,157
-182,-60,178
-190,-46,192
-192,-37,205
-194,-29,220
-196,-18,233
-199,-4,246
-204,3,262
-211,16,276
-220,27,289
-226,41,304
-239,52,323
-246,57,340
-260,61,356
-273,65,366
-283,62,380
-293,62,390
-301,58,400
-305,54,406
-312,45,408
-312,39,412
-313,36,413
-308,29,420
-304,29,418
-297,29,422
-289,28,423
-278,37,425
-269,48,426
-261,57,428
-250,70,433
-245,83,435
-232,94,436
-227,111,440
-224,122,438
-223,133,442
-225,134,442
-228,136,443
-229,133,441
-232,128,438
-232,123,436
-228,108,437
-224,101,430
-213,86,426
-203,76,419
-193,67,414
-181,61,406
-165,52,399
-148,49,387
-129,44,377
-106,35,365
-78,27,358
-58,15,348
-39,2,344
-21,-15,338
-4,-32,334
2,-51,335
6,-77,340
7,-99,340
8,-121,339
9,-150,346
10,-184,352
3,-223,362
-10,-253,370
-28,-284,383
-47,-312,394
-67,-335,405
-81,-359,419
-92,-382,424
-101,-403,431
-105,-421,432
-105,-430,429
-105,-432,422
-106,-434,414
-113,-428,403
-126,-425,392
-145,-423,391
-171,-426,381
-202,-430,373
-232,-433,365
-261,-444,353
-290,-455,349
-322,-472,337
-349,-492,327
-373,-509,321
-387,-528,309
-400,-542,297
-408,-557,290
-409,-565,277
-407,-575,265
-396,-574,253
-382,-571,240
-366,-571,230
-344,-570,217
-321,-559,208
-303,-544,195
-280,-529,191
-261,-514,185
-250,-491,177
-241,-466,175
-233,-438,169
-226,-413,167
-225,-390,163
-229,-365,157
-234,-343,152
-242,-328,149
-251,-316,142
-262,-308,139
-269,-308,132
-278,-308,119
-290,-314,102
-296,-322,86
-302,-333,72
-307,-333,53
-305,-343,36
-301,-343,17
-290,-338,6
-273,-328,-7
-254,-307,-19
-238,-289,-25
-227,-275,-29
-211,-273,-29
-203,-273,-27
-202,-273,-25
-202,-267,-26
-197,-254,-30
-203,-236,-35
-208,-205,-42
-216,-171,-52
-224,-142,-71
-228,-118,-90
-237,-94,-113
-246,-85,-126
-256,-76,-141
-262,-68,-154
-256,-60,-164
-245,-43,-177
-224,-21,-189
-198,4,-204
-164,25,-218
-121,47,-233
-62,61,-243
-11,79,-260
36,107,-266
79,136,-279
112,168,-291
131,197,-306
133,235,-325
125,265,-338
106,284,-356
75,284,-378
47,273,-393
23,253,-408
18,232,-422
23,198,-428
47,167,-426
86,140,-421
130,116,-421
179,105,-421
223,111,-417
260,120,-420
293,119,-428
318,104,-428
330,84,-437
342,59,-446
354,31,-458
368,4,-475
389,-20,-491
412,-48,-496
439,-78,-497
467,-104,-494
491,-118,-480
516,-118,-462
530,-125,-442
549,-138,-426
565,-142,-418
582,-139,-413
608,-106,-405
626,-38,-406
648,45,-400
674,120,-394
704,171,-386
726,199,-380
735,220,-380
727,224,-379
698,220,-390
657,204,-405
605,185,-432
538,159,-463
469,143,-497
395,125,-541
333,114,-588
278,108,-634
248,103,-675
236,93,-708
235,102,-728
241,144,-743
247,215,-750
253,303,-745
249,389,-738
239,483,-733
221,576,-726
200,664,-720
186,745,-720
177,813,-719
174,867,-727
177,907,-740
182,936,-757
196,959,-782
222,971,-804
243,983,-829
257,998,-860
270,1015,-888
279,1035,-913
282,1057,-936
288,1084,-962
290,1111,-988
282,1126,-1016
273,1131,-1046
261,1133,-1075
251,1128,-1111
243,1121,-1147
230,1124,-1182
221,1142,-1213
200,1169,-1243
177,1205,-1269
145,1247,-1287
105,1277,-1304
60,1298,-1322
7,1303,-1338
-47,1296,-1364
-111,1270,-1396
-175,1225,-1439
-248,1171,-1489
-319,1111,-1549
-388,1077,-1603
-444,1078,-1646
-473,1109,-1669
-475,1155,-1672
-459,1201,-1656
-428,1238,-1631
-393,1261,-1602
-357,1260,-1566
-323,1225,-1529
-293,1161,-1499
-269,1074,-1469
-254,988,-1449
-246,900,-1427
-237,838,-1403
-225,809,-1368
-202,817,-1334
-172,838,-1293
-140,860,-1252
-109,873,-1214
-70,886,-1184
-32,887,-1158
11,885,-1135
50,879,-1118
85,866,-1105
114,844,-1093
138,807,-1077
165,770,-1061
192,737,-1034
220,726,-1000
242,738,-963
256,767,-917
269,806,-872
270,856,-830
271,904,-792
263,959,-752
249,1013,-723
228,1070,-695
200,1120,-676
176,1170,-662
148,1217,-648
117,1264,-636
86,1300,-630
70,1339,-626
60,1386,-636
60,1412,-654
65,1455,-668
69,1491,-679
76,1520,-682
72,1546,-679
63,1561,-677
41,1559,-674
0,1536,-681
-50,1494,-686
-110,1442,-696
-177,1381,-705
-241,1316,-717
-302,1253,-724
-369,1201,-727
-419,1175,-729
-428,1166,-740
-381,1187,-770
-264,1249,-831
-80,1359,-920
118,1507,-1003
272,1663,-1040
370,1803,-1036
450,1921,-1009
498,2025,-951
483,2096,-859
387,2117,-742
223,2075,-612
0,1968,-483
-227,1798,-376
-408,1574,-315
-514,1315,-294
-565,1056,-276
-574,824,-258
-536,623,-223
-471,471,-178
-402,357,-113
-358,306,-28
-351,289,74
-368,292,194
-423,300,310
-497,292,423
-598,275,522
-711,252,604
-827,221,666
-931,180,700
-1018,133,700
-1084,77,681
-1117,15,638
-1121,-43,568
-1082,-102,487
-1014,-153,394
-923,-208,298
-817,-255,204
-715,-294,124
-617,-330,64
-533,-366,23
-465,-410,-2
-410,-445,-23
-351,-473,-27
-293,-500,-24
-232,-514,-12
-174,-521,6
-114,-526,36
-49,-522,64
14,-507,95
74,-491,127
121,-473,161
154,-458,196
171,-450,226
175,-450,255
158,-450,282
146,-454,305
130,-460,329
124,-463,350
123,-460,373
133,-451,392
154,-435,413
165,-406,447
158,-376,489
134,-345,538
99,-314,587
63,-283,640
21,-252,685
-22,-226,728
-59,-208,768
-94,-199,806
-117,-196,839
-122,-199,861
-117,-202,878
-108,-206,897
-95,-199,915
-81,-180,929
-68,-153,951
-67,-112,974
-67,-61,1006
-82,24,1046
-97,123,1084
-110,220,1125
-127,313,1159
-158,378,1187
-205,425,1216
-269,463,1235
-331,482,1252
-393,499,1258
-441,510,1253
-483,508,1238
-519,496,1223
-533,482,1202
-536,471,1177
-532,477,1152
-524,502,1126
-515,541,1100
-500,581,1069
-482,624,1032
-454,658,987
-423,671,936
-400,660,880
-386,633,824
-384,579,770
-384,502,721
-394,417,676
-408,331,638
-426,247,604
-445,171,577
-459,95,550
-467,31,522
-465,-20,489
-455,-58,465
-445,-85,443
-428,-104,421
-415,-113,406
-403,-124,392
-397,-149,377
-396,-190,369
-396,-240,357
-403,-294,357
-429,-347,358
-468,-395,364
-510,-450,374
-559,-492,377
-607,-515,386
-639,-519,387
-654,-501,371
-644,-451,343
-610,-393,304
-579,-332,275
-555,-263,248
-543,-188,224
-531,-146,197
-520,-143,159
-504,-191,112
-466,-263,62
-398,-367,10
-316,-505,-36
-225,-672,-65
-145,-864,-85
-80,-1055,-95
-29,-1234,-101
-10,-1406,-98
-39,-1553,-74
-130,-1636,-42
-269,-1636,8
-421,-1579,64
-563,-1508,123
-680,-1420,190
-775,-1312,256
-848,-1169,319
-893,-996,376
-906,-809,432
-894,-617,472
-858,-422,505
-802,-242,525
-732,-71,534
-646,88,521
-551,220,498
-450,333,463
-354,421,417
-264,482,361
-188,525,301
-120,550,239
-64,556,178
-19,542,119
19,525,63
53,504,11
71,486,-35
87,470,-78
88,451,-120
85,437,-153
73,430,-177
66,423,-194
58,428,-210
54,440,-218
50,463,-223
47,491,-222
48,521,-219
49,547,-216
51,577,-210
64,606,-202
77,629,-194
91,647,-184
101,654,-174
112,653,-161
118,637,-143
111,624,-127
97,613,-109
78,606,-93
56,599,-78
27,596,-66
-6,594,-45
-35,602,-36
-63,615,-22
-96,632,-12
-127,655,-3
-158,676,5
-188,698,11
-210,718,14
-234,736,19
-254,738,22
-275,736,29
-309,730,37
-350,711,49
-392,686,61
-430,656,76
-468,629,91
-493,602,106
-508,586,117
-518,589,130
-517,608,136
-517,640,144
-520,687,153
-526,748,158
-540,809,168
-562,874,179
-595,946,192
-633,1009,198
-667,1069,204
-696,1125,202
-716,1167,187
-723,1205,166
-722,1232,140
-721,1248,101
-723,1247,69
-714,1243,32
-706,1229,-4
-690,1216,-36
-665,1200,-66
-642,1194,-91
-622,1201,-103
-609,1210,-109
-592,1229,-114
-573,1248,-114
-548,1271,-113
-526,1292,-112
-500,1319,-113
-474,1341,-110
-452,1360,-109
-422,1375,-105
-392,1384,-95
-364,1395,-82
-341,1403,-61
-315,1412,-42
-290,1424,-17
-271,1436,11
-249,1444,39
-231,1447,66
-212,1448,94
-196,1446,118
-184,1443,139
-176,1437,161
-171,1439,179
-170,1443,194
-173,1450,208
-174,1465,222
-184,1480,236
-194,1498,247
-208,1516,258
-223,1531,261
-238,1549,270
-254,1568,282
-272,1587,293
-293,1607,307
-311,1626,322
-329,1650,331
-353,1669,342
-371,1691,350
-389,1714,356
-403,1738,356
-410,1765,356
-412,1795,355
-414,1830,356
-414,1865,352
-411,1899,347
-406,1929,342
-388,1960,331
-371,1993,318
-361,2029,302
-356,2061,286
-350,2092,275
-347,2122,258
-346,2140,241
-350,2144,230
-351,2135,217
-351,2115,214
-358,2098,227
-400,2090,257
-473,2074,327
-517,1987,375
-481,1828,381
-409,1679,354
-325,1591,317
-227,1565,263
-129,1629,198
-19,1783,113
107,2046,5
244,2387,-125
383,2772,-256
515,3208,-379
623,3696,-474
666,4151,-542
667,4510,-593
628,4763,-648
574,4898,-714
510,4933,-783
421,4911,-847
314,4837,-884
196,4731,-906
82,4594,-910
-21,4453,-899
-109,4314,-870
-179,4195,-829
-231,4098,-780
-263,4033,-741
-288,3993,-703
-316,3954,-662
-341,3917,-622
-365,3878,-587
-383,3848,-557
-417,3812,-525
-455,3756,-481
-481,3673,-434
-493,3558,-389
-493,3415,-351
-487,3258,-314
-489,3096,-277
-499,2941,-239
-519,2803,-195
-536,2688,-152
-556,2605,-106
-559,2554,-64
-551,2530,-27
-528,2529,6
-501,2556,31
-465,2584,56
-429,2606,79
-385,2627,98
-342,2638,122
-298,2635,143
-249,2612,165
-204,2572,190
-170,2525,212
-145,2458,234
-124,2392,253
-105,2325,271
-86,2252,284
-65,2187,295
-36,2128,297
-11,2083,294
20,2064,282
48,2054,282
59,2042,279
57,2037,274
47,2016,273
39,1995,267
41,1968,260
38,1949,244
43,1925,233
41,1894,213
46,1862,199
53,1827,180
55,1796,166
64,1759,151
72,1715,138
65,1663,127
48,1611,120
35,1553,117
14,1490,117
-3,1424,113
-10,1353,112
-16,1285,111
-15,1223,112
-12,1167,114
-6,1117,110
-2,1072,115
8,1038,110
16,1003,111
23,980,108
25,956,109
35,941,111
40,924,111
45,895,113
41,862,113
31,808,115
32,737,114
46,613,117
90,364,156
175,-106,249
260,-655,329
288,-968,318
278,-1088,281
269,-1130,248
259,-1124,220
249,-1099,203
233,-1055,177
220,-999,153
206,-936,127
189,-870,101
174,-818,78
160,-774,55
155,-731,32
159,-696,13
164,-656,-5
171,-616,-26
180,-565,-41
185,-507,-58
182,-447,-62
177,-390,-66
161,-331,-65
139,-278,-61
120,-230,-46
111,-209,-11
129,-245,55
176,-368,161
216,-555,247
218,-702,256
204,-762,235
189,-770,210
170,-750,197
141,-714,174
101,-677,150
62,-635,124
22,-591,94
-5,-542,63
-30,-497,34
-44,-458,15
-45,-443,-7
-39,-441,-18
-36,-461,-34
-35,-496,-43
-41,-544,-51
-49,-594,-56
-58,-644,-71
-57,-683,-88
-46,-720,-105
-27,-751,-130
1,-766,-151
31,-778,-168
64,-778,-186
90,-772,-194
103,-776,-202
106,-786,-206
100,-794,-214
99,-805,-225
105,-814,-239
109,-816,-257
121,-807,-278
130,-792,-297
138,-768,-321
145,-731,-347
145,-692,-365
141,-647,-385
131,-598,-401
115,-538,-413
97,-473,-426
73,-401,-438
49,-338,-457
25,-276,-475
0,-212,-496
-30,-144,-515
-63,-80,-540
-81,-23,-574
-95,24,-614
-100,68,-655
-92,103,-698
-77,127,-727
-52,149,-752
-28,178,-769
-1,210,-773
26,243,-756
43,276,-731
55,307,-689
64,339,-645
59,366,-581
50,387,-517
33,403,-449
22,413,-385
12,423,-323
18,425,-257
29,418,-202
61,410,-146
105,400,-90
160,389,-35
226,377,16
294,360,66
366,347,115
436,329,170
494,312,221
540,303,273
573,292,315
593,291,352
603,292,382
597,298,410
586,302,431
568,315,446
553,327,452
535,343,454
528,354,449
520,363,436
510,367,421
499,366,407
486,359,397
474,347,378
468,323,361
463,298,343
460,267,326
460,235,310
461,197,301
465,154,288
475,116,279
479,80,275
484,41,270
489,8,266
492,-22,270
493,-51,269
490,-70,269
482,-90,266
473,-101,269
463,-102,263
451,-102,255
438,-100,250
425,-88,242
413,-74,229
401,-57,218
389,-36,199
374,-15,185
359,13,164
347,41,142
319,70,124
292,100,108
261,125,88
230,152,65
197,176,39
159,195,19
119,214,-9
75,222,-35
28,225,-62
-23,226,-90
-77,221,-113
-126,209,-144
-172,195,-175
-216,182,-209
-247,166,-241
-276,150,-266
-302,137,-285
-320,126,-296
-329,114,-299
-341,96,-295
-350,76,-281
-360,47,-254
-370,15,-223
-377,-11,-194
-383,-36,-167
-388,-49,-147
-391,-61,-123
-390,-50,-100
-372,-34,-84
-345,-10,-70
-314,10,-59
-275,30,-52
-239,52,-48
-195,68,-47
-151,78,-51
-108,81,-55
-68,87,-61
-22,93,-65
16,90,-72
53,86,-79
80,83,-82
97,80,-81
104,68,-75
101,61,-72
97,50,-62
82,39,-56
62,28,-42
39,29,-28
17,32,-21
-1,36,-7
-10,47,2
-14,56,13
-13,56,29
-15,71,44
-12,70,61
-2,74,77
8,73,100
24,69,120
40,68,137
61,54,155
84,48,173
114,27,193
144,15,203
180,-9,217
224,-27,230
271,-52,237
317,-67,242
372,-89,246
420,-100,246
472,-115,250
520,-120,254
564,-126,258
607,-132,259
649,-133,258
696,-133,256
749,-138,253
807,-137,251
866,-137,246
932,-135,235
1002,-137,219
1076,-139,198
1154,-144,175
1234,-154,153
1310,-163,118
1386,-182,81
1448,-200,40
1492,-214,0
1513,-228,-46
1508,-229,-85
1483,-232,-127
1440,-218,-168
1391,-203,-205
1322,-181,-231
1245,-153,-259
1160,-122,-271
1070,-90,-282
979,-60,-281
889,-34,-274
799,-8,-265
711,12,-253
632,35,-240
548,52,-219
464,67,-193
383,81,-167
301,92,-139
224,97,-108
146,102,-75
65,97,-42
0,95,-16
-61,91,4
-117,82,19
-164,76,34
-209,63,40
-246,56,42
-278,47,43
-307,43,40
-339,39,32
-369,38,28
-400,36,24
-437,33,22
-470,31,24
-501,35,23
-523,34,30
-551,38,31
-577,44,42
-601,47,53
-624,52,71
-635,54,85
-638,63,95
-628,63,104
-608,67,105
-574,73,102
-528,79,85
-472,84,62
-416,92,30
-358,97,-3
-302,101,-34
-259,103,-61
-222,98,-79
-194,82,-92
-176,59,-100
-162,26,-100
-160,-9,-95
-160,-44,-84
-163,-73,-78
-167,-90,-73
-168,-107,-73
-174,-101,-77
-178,-91,-85
-179,-76,-97
-179,-55,-103
-173,-41,-111
-173,-19,-119
-173,0,-116
-140,22,-123
-163,62,-117
-169,66,-110
-179,59,-100
-189,48,-90
-200,36,-82
-215,19,-69
-230,5,-49
-245,-5,-31
-257,-24,-12
-265,-37,7
-278,-56,26
-281,-68,47
-285,-74,66
-289,-80,82
-294,-85,107
-301,-101,131
-313,-115,147
-318,-127,165
-327,-149,183
-332,-167,199
-337,-183,214
-343,-192,222
-349,-187,229
-350,-182,239
-350,-175,243
-341,-157,245
-331,-135,248
-315,-104,250
-300,-70,245
-278,-27,243
-256,16,243
-231,50,247
-206,90,244
-182,129,245
-154,156,246
-130,185,250
-109,210,255
-98,229,261
-89,254,269
-86,275,278
-84,301,284
-86,324,290
-86,348,283
-88,377,276
-91,396,263
-96,405,245
-119,410,230
-154,403,223
-204,378,213
-266,358,206
-336,323,198
-423,267,195
-538,202,193
-671,126,190
-828,39,189
-981,-34,182
-1129,-94,165
-1251,-136,130
-1340,-164,86
-1399,-184,29
-1413,-195,-39
-1395,-201,-111
-1356,-214,-179
-1293,-212,-241
-1215,-209,-299
-1126,-220,-344
-1035,-230,-385
-951,-261,-421
-877,-284,-456
-816,-321,-493
-766,-346,-518
-728,-372,-547
-697,-387,-569
-679,-403,-579
-671,-417,-587
-670,-421,-601
-668,-417,-617
-654,-408,-642
-629,-403,-673
-579,-403,-706
-525,-395,-733
-467,-382,-756
-423,-376,-775
-379,-364,-783
-349,-356,-787
-320,-343,-785
-296,-324,-775
-274,-303,-770
-254,-270,-759
-229,-236,-750
-195,-195,-739
-158,-151,-723
-116,-109,-699
-66,-62,-671
-18,-12,-635
33,31,-588
88,65,-526
147,85,-455
210,109,-377
279,124,-288
347,127,-193
419,128,-88
496,127,15
573,128,115
647,135,207
715,144,291
772,163,359
823,193,421
869,230,470
917,273,507
956,317,537
999,359,561
1036,397,577
1069,427,593
1097,443,604
1110,441,619
1093,421,638
1058,383,653
1011,334,662
954,281,662
891,229,654
824,176,638
761,127,609
701,79,575
648,40,533
607,7,482
576,-25,425
553,-42,363
539,-58,300
530,-63,237
529,-57,177
530,-41,130
535,-19,84
539,13,51
527,56,29
516,94,12
497,124,5
476,150,-4
454,177,-3
429,212,-4
399,268,-9
377,371,-7
353,511,3
337,643,7
334,725,-4
336,766,-26
331,786,-61
309,798,-123
265,806,-208
221,807,-315
202,803,-421
214,780,-509
248,756,-573
311,751,-595
381,765,-581
443,779,-537
479,764,-465
506,722,-381
515,676,-284
501,623,-189
462,563,-108
389,499,-39
291,440,4
191,380,43
104,331,68
39,283,88
-9,229,98
-51,175,108
-87,124,122
-119,73,134
-155,35,153
-189,12,179
-210,7,202
-227,10,224
-231,63,238
-240,169,240
-267,237,230
-313,249,204
-359,234,176
-394,205,149
-420,155,134
-438,96,129
-449,27,145
-460,-40,163
-472,-91,190
-483,-121,215
-493,-126,229
-507,-126,242
-520,-128,246
-533,-145,250
-544,-185,254
-548,-231,267
-542,-286,279
-535,-343,291
-526,-399,314
-534,-449,332
-554,-491,347
-588,-524,360
-629,-559,365
-663,-590,363
-695,-622,348
-711,-650,327
-714,-682,296
-709,-699,265
-704,-711,237
-703,-717,213
-710,-715,189
-711,-705,160
-721,-690,130
-729,-661,98
-734,-632,61
-736,-606,27
-736,-579,-8
-729,-566,-47
-724,-553,-82
-714,-545,-119
-703,-542,-146
-682,-538,-177
-657,-539,-201
-625,-531,-226
-588,-522,-245
-554,-502,-262
-518,-474,-272
-484,-445,-280
-438,-413,-285
-380,-378,-288
-318,-347,-289
-256,-312,-284
-191,-281,-269
-123,-254,-243
-56,-227,-213
13,-197,-184
83,-167,-147
152,-140,-111
212,-110,-79
265,-78,-46
316,-46,-17
356,-22,7
389,-2,31
417,12,51
442,30,61
461,45,66
478,58,61
486,69,55
492,73,41
497,72,29
496,69,22
494,64,12
492,55,8
484,35,6
472,4,10
462,-14,17
451,-28,22
437,-44,30
423,-49,34
407,-37,33
400,-20,30
391,11,21
379,50,4
366,83,-15
342,119,-34
315,143,-47
287,156,-54
255,163,-55
220,157,-54
187,145,-52
155,132,-55
129,108,-50
104,85,-51
84,59,-49
66,33,-49
56,5,-44
46,-23,-39
41,-48,-33
42,-69,-22
42,-90,-15
46,-103,-6
50,-118,1
52,-128,4
52,-137,11
52,-144,15
56,-151,17
59,-159,18
60,-158,21
63,-167,24
63,-169,18
63,-166,21
62,-168,20
61,-166,22
62,-164,31
62,-155,39
71,-145,43
79,-127,41
90,-114,40
102,-98,40
115,-91,40
137,-64,38
148,-57,41
157,-42,36
168,-52,39
178,-45,46
180,-57,46
188,-54,53
181,-73,62
173,-70,58
162,-73,62
150,-77,64
129,-74,66
112,-76,65
96,-80,67
81,-88,61
64,-95,63
50,-97,57
40,-106,53
30,-103,48
23,-107,45
23,-108,41
21,-108,36
25,-108,34
30,-112,33
38,-112,31
47,-122,33
58,-127,29
68,-129,28
81,-139,28
97,-138,34
111,-144,35
123,-141,40
133,-139,49
137,-140,57
146,-140,66
148,-139,73
147,-136,87
151,-137,103
156,-131,113
168,-128,123
179,-121,127
192,-113,132
207,-104,131
227,-95,134
242,-87,133
257,-82,134
271,-75,134
281,-69,126
289,-68,125
295,-62,120
298,-57,118
296,-52,115
298,-43,117
295,-36,114
290,-29,109
288,-18,107
278,-8,103
273,0,99
265,7,98
258,9,97
251,13,94
242,17,94
238,22,93
233,25,90
234,27,91
235,32,89
239,32,89
239,36,87
243,41,82
249,43,81
250,46,77
252,47,75
256,49,73
258,51,69
257,54,67
257,59,66
258,64,62
257,66,61
257,73,58
253,73,51
245,76,48
237,76,46
229,74,44
225,73,31
213,74,22
211,69,18
203,68,2
201,59,-6
196,56,-17
193,51,-27
189,45,-36
187,42,-49
181,34,-61
177,24,-71
168,20,-84
163,16,-98
156,15,-106
145,12,-119
134,13,-130
127,16,-141
114,22,-152
104,23,-163
93,29,-171
86,33,-181
78,39,-192
65,44,-198
58,49,-206
49,51,-207
40,58,-217
30,62,-217
23,69,-217
15,69,-224
11,70,-228
11,69,-232
15,68,-237
15,67,-240
16,69,-245
18,65,-249
23,62,-255
20,59,-256
19,53,-257
15,50,-255
14,44,-252
5,30,-254
-4,21,-251
-16,15,-252
-33,15,-245
-48,16,-235
-61,18,-226
-75,26,-212
-95,29,-195
-108,41,-178
-120,49,-163
-135,56,-145
-141,67,-127
-149,74,-112
-152,82,-92
-152,83,-75
-153,79,-60
-159,75,-46
-156,67,-33
-163,57,-27
-161,44,-22
-164,32,-15
-168,22,-16
-173,12,-19
-173,1,-24
-174,-4,-28
-176,-12,-33
-175,-15,-37
-176,-17,-43
-173,-19,-45
-171,-20,-49
-167,-21,-51
-166,-17,-56
-158,-18,-54
-157,-18,-52
-152,-16,-53
-149,-16,-47
-145,-12,-39
-138,-13,-32
-132,-7,-22
-127,-5,-13
-122,0,-3
-114,1,8
-109,3,16
-100,4,26
-91,9,34
-83,13,46
-73,17,54
-63,12,63
-50,11,71
-42,15,72
-34,12,82
-19,10,81
-9,12,86
-4,11,82
5,10,80
16,7,80
22,5,74
30,0,70
38,-4,61
39,-9,63
43,-15,53
43,-20,49
44,-24,43
43,-29,39
37,-34,33
31,-37,31
26,-39,29
17,-39,26
13,-32,21
3,-34,21
0,-27,15
-9,-22,16
-12,-16,16
-21,-9,13
-25,-1,14
-29,8,12
-30,14,14
-39,24,13
-40,29,13
-40,30,14
-46,34,11
-44,35,14
-47,34,12
-48,33,12
-49,30,13
-49,28,12
-49,25,10
-49,23,13
-52,20,12
-51,23,15
-46,19,14
-44,19,16
-36,15,16
-28,17,23
-23,12,26
-22,8,30
-22,7,40
-23,4,44
-19,0,52
-16,-4,63
-18,-1,67
-13,2,69
-9,5,74
-2,9,78
7,16,75
23,18,74
40,16,71
60,14,69
79,15,67
102,14,61
119,8,57
139,-1,58
153,-11,52
163,-21,49
171,-32,46
182,-46,41
182,-54,41
186,-63,39
185,-72,39
183,-77,37
179,-86,30
173,-87,28
168,-92,35
163,-90,37
159,-84,43
153,-75,35
148,-60,27
143,-43,20
138,-29,11
129,-13,10
118,-1,10
109,4,9
103,8,5
87,8,4
78,3,-2
66,-2,-8
59,-7,-12
42,-15,-12
32,-24,-12
22,-28,-15
16,-40,-14
12,-44,-19
11,-44,-21
9,-44,-25
13,-45,-29
10,-40,-36
12,-34,-41
11,-27,-51
9,-21,-57
10,-13,-65
10,-6,-72
5,1,-79
2,8,-83
-5,18,-89
-18,26,-91
-29,28,-87
-37,30,-81
-48,30,-72
-60,32,-67
-70,29,-59
-80,25,-58
-89,24,-52
-92,22,-51
-95,21,-41
-94,23,-44
-95,25,-46
-93,28,-50
-91,30,-53
-94,30,-53
-95,28,-56
-97,25,-54
-98,25,-55
-97,28,-53
-103,30,-55
-106,32,-52
-107,34,-53
-109,37,-48
-113,36,-45
-115,37,-42
-114,38,-39
-118,36,-38
-117,34,-33
-113,30,-31
-117,22,-24
-118,17,-20
-114,10,-16
-114,4,-13
-111,0,-12
-112,0,-9
-112,-4,-9
-118,0,-4
-125,-1,-1
-128,-2,0
-136,-2,7
-143,-1,12
-155,2,15
-159,0,17
-157,4,21
-154,10,23
-147,17,17
-138,22,18
-128,26,12
-119,32,14
-104,32,14
-95,34,15
-81,36,10
-70,39,11
-63,43,7
-59,45,6
-56,44,4
-52,45,7
-56,49,9
-58,48,15
-64,47,21
-71,47,24
-75,44,28
-82,44,36
-88,40,43
-92,41,51
-94,40,57
-95,47,62
-89,49,69
-84,50,75
-81,52,78
-73,48,87
-65,48,84
-57,42,86
-51,36,85
-44,32,82
-37,28,79
-29,24,71
-21,21,61
-10,16,48
1,8,38
10,1,30
22,-8,18
33,-17,10
41,-25,0
51,-33,-5
59,-43,-12
67,-48,-20
71,-55,-27
73,-58,-30
74,-61,-30
76,-62,-27
71,-64,-22
72,-66,-17
71,-62,-17
67,-58,-13
66,-50,-8
61,-44,-1
54,-38,1
47,-29,8
44,-22,18
32,-15,23
27,-13,30
17,-9,34
6,-2,36
-3,4,40
-10,9,44
-15,16,46
-24,18,45
-33,20,48
-36,22,46
-42,23,44
-42,24,46
-46,25,43
-42,29,45
-38,25,42
-33,22,44
-24,18,41
-9,14,35
7,9,29
23,-1,20
44,-10,8
59,-23,-6
71,-35,-21
85,-45,-32
88,-53,-38
91,-56,-47
89,-60,-49
87,-57,-47
81,-50,-46
70,-43,-44
56,-31,-35
37,-22,-34
16,-8,-25
-6,-2,-14
-36,11,2
-67,20,12
-88,30,20
-104,41,24
-114,47,27
-119,53,25
-123,53,28
-125,57,30
-121,54,32
-118,47,40
-118,42,48
-114,38,53
-109,29,60
-107,23,69
-101,15,80
-96,6,85
-88,-3,92
-85,-8,99
-82,-9,102
-76,-13,109
-69,-19,114
-63,-23,113
-54,-24,116
-46,-26,117
-38,-29,111
-26,-27,107
-20,-25,99
-6,-28,90
5,-29,81
11,-24,75
23,-22,66
29,-20,62
35,-18,55
37,-18,52
43,-21,46
48,-27,40
46,-29,34
49,-40,32
51,-40,29
55,-39,21
65,-37,15
71,-38,10
81,-32,0
88,-31,-5
99,-29,-14
107,-27,-26
116,-21,-30
114,-17,-40
116,-14,-50
114,-11,-54
111,-3,-64
102,0,-67
95,6,-71
84,13,-72
71,17,-73
62,19,-76
49,21,-79
37,26,-83
22,34,-86
14,37,-86
4,40,-91
-4,42,-89
-13,41,-88
-19,41,-88
-27,42,-84
-29,39,-81
-36,40,-81
-35,37,-79
-40,33,-75
-41,26,-77
-47,25,-76
-44,20,-71
-53,21,-70
-57,20,-65
-63,22,-61
-69,19,-51
-71,23,-46
-78,23,-37
-77,25,-32
-75,27,-30
-74,26,-24
-72,25,-23
-68,27,-15
-64,28,-8
-55,27,-6
-48,25,2
-38,24,7
-31,23,10
-18,21,14
-14,22,17
-10,23,21
-9,19,25
-6,19,34
-10,18,39
-13,19,48
-10,25,44
-1,26,46
6,27,40
21,31,41
37,36,37
47,40,39
56,42,37
67,42,40
70,35,41
75,28,40
80,19,46
82,10,46
80,-1,46
79,-11,47
75,-16,44
68,-25,42
60,-29,40
52,-29,44
42,-29,42
34,-26,40
23,-18,41
16,-14,37
13,-5,35
7,-1,29
5,5,26
2,11,27
3,14,21
5,16,22
10,21,17
12,24,13
12,26,14
16,24,16
14,23,16
18,18,16
19,10,16
21,5,18
22,0,18
25,-3,18
27,-8,15
31,-9,13
33,-13,10
41,-13,11
37,-14,9
37,-13,9
35,-9,5
30,-11,7
25,-5,3
21,-1,2
22,-4,1
18,-3,-2
19,0,0
17,0,-4
17,0,-5
16,0,-6
15,2,-3
18,6,-6
18,5,-9
18,6,-5
20,8,-2
20,7,-5
19,6,-6
19,6,-6
20,7,-7
19,9,-5
19,8,-7
22,10,-7
22,10,-6
21,6,-8
24,8,-5
23,7,-8
23,6,-11
23,3,-9
22,2,-10
21,3,-9
21,0,-9
21,-1,-6
23,1,-9
21,-4,-10
24,-5,-10
26,-4,-12
26,-9,-12
28,-7,-11
27,-6,-14
30,-7,-11
29,-6,-15
30,-1,-16
24,2,-14
19,1,-13
15,6,-13
7,7,-8
-3,10,-4
-12,15,-1
-13,17,0
-11,17,-5
-9,17,-3
-6,21,-6
-2,20,-3
-1,16,-2
3,12,-3
7,5,-2
10,-1,-3
17,-7,-2
16,-16,-2
20,-25,2
17,-31,2
13,-41,6
6,-42,7
-3,-41,10
-15,-45,18
-31,-41,22
-47,-35,30
-63,-27,36
-78,-22,43
-91,-15,46
-100,-11,51
-104,-2,51
-104,3,52
-97,9,49
-93,15,52
-84,19,50
-70,17,49
-55,19,44
-41,15,42
-33,10,42
-23,4,40
-15,-3,39
-8,-7,43
-2,-15,44
0,-21,42
-2,-25,43
0,-26,46
-1,-27,40
-3,-29,38
-2,-28,35
-4,-28,31
-4,-29,29
-7,-27,23
-7,-26,22
-5,-24,15
-6,-21,8
-6,-23,3
-5,-21,-2
0,-19,-3
-2,-17,-7
0,-16,-7
-1,-11,-11
-1,-9,-11
0,-6,-11
2,-8,-11
6,-8,-11
3,-10,-11
5,-9,-12
5,-11,-12
6,-10,-17
7,-12,-15
6,-11,-16
5,-14,-17
4,-15,-19
2,-14,-22
2,-12,-22
2,-12,-22
2,-11,-25
5,-10,-23
7,-10,-22
9,-13,-22
11,-12,-23
14,-16,-23
19,-17,-23
21,-19,-26
26,-20,-25
31,-20,-21
34,-13,-24
40,-13,-25
43,-9,-23
46,-8,-24
47,-6,-19
49,-8,-19
50,-7,-21
54,-5,-15
51,-6,-14
51,-12,-11
48,-11,-8
43,-10,-5
41,-9,-2
32,-8,4
26,-5,9
16,-1,13
13,3,12
12,4,13
15,9,15
22,10,14
28,8,11
32,9,10
39,9,7
46,7,6
51,5,2
55,2,1
59,-2,2
57,-6,1
57,-6,0
57,-7,-2
51,-5,-2
48,-9,-2
41,-11,0
38,-11,0
27,-12,2
21,-14,6
12,-16,4
5,-15,6
-4,-14,9
-11,-12,6
-16,-11,11
-24,-9,11
-27,-6,12
-30,-3,11
-28,0,13
-32,0,12
-32,4,13
-34,5,15
-27,6,18
-29,7,14
-25,8,20
-25,8,17
-19,7,22
-19,9,18
-13,8,23
-10,7,18
-2,8,20
-1,9,15
5,11,15
6,10,11
11,9,10
15,6,11
18,7,10
18,7,8
21,4,9
24,5,7
22,2,2
24,2,2
24,0,4
19,0,5
14,0,2
15,0,2
14,-1,4
12,3,3
9,2,0
6,6,4
8,6,4
6,7,3
6,6,2
6,10,2
4,7,1
6,5,5
6,9,0
4,4,3
4,6,6
0,5,5
1,0,6
2,-1,3
1,-2,0
0,-1,0
2,-3,-3
0,-3,-5
0,-3,-8
0,-5,-8
-2,-6,-6
-4,-4,-10
-2,-2,-6
-1,-4,-3
-2,0,-4
-1,1,-5
2,5,-6
3,6,-7
1,10,-4
8,8,-6
8,7,-5
5,6,-7
6,7,-8
9,5,-6
10,4,-7
14,6,-5
14,7,-9
15,4,-12
19,-4,-10
16,-1,-10
16,-2,-10
18,-1,-8
15,0,-4
16,1,-1
17,4,0
15,5,1
14,6,2
13,9,4
13,10,6
10,8,5
12,6,3
11,6,3
9,1,3
10,4,0
9,0,1
11,0,-1
7,-1,-1
6,-1,0
5,-3,-2
5,-3,-3
5,-3,-8
1,-1,-3
0,0,-2
-5,4,0
-2,4,-2
-2,5,0
-3,8,2
-2,8,1
-3,8,6
-1,11,6
0,9,5
3,8,8
2,4,7
3,6,9
7,4,8
9,0,8
10,2,5
12,1,4
13,0,5
15,-1,2
20,-4,-1
22,-4,-1
23,-1,-1
21,0,0
12,3,3
11,3,8
8,6,7
-1,8,10
-7,15,15
-10,19,15
-9,25,17
-2,29,9
6,34,12
14,32,8
26,33,6
34,29,4
44,30,2
49,23,2
54,20,2
52,12,2
50,4,3
45,0,2
39,-7,5
34,-12,6
23,-16,6
18,-19,9
6,-19,9
1,-16,11
-3,-15,9
-9,-17,11
-13,-15,9
-13,-15,3
-16,-13,6
-15,-12,3
-12,-7,1
-12,-7,-3
-11,-5,-7
-10,0,-8
-7,1,-8
-8,7,-10
-8,9,-6
-10,10,-6
-11,12,-3
-13,11,0
-14,11,2
-17,10,3
-15,9,5
-17,6,8
-15,6,8
-9,3,8
-6,1,7
-2,1,3
5,2,7
13,-2,7
22,1,6
27,1,6
34,-1,4
38,0,2
44,1,-2
49,-2,1
50,-3,1
51,-2,1
51,-3,3
48,-3,0
48,-5,3
43,0,2
39,0,6
36,-1,7
33,0,8
28,-1,4
24,-1,6
21,-1,10
20,-1,7
18,2,5
16,0,7
17,6,5
16,4,2
15,6,2
13,6,1
14,8,2
13,10,0
12,8,1
12,6,3
13,7,1
14,4,2
12,1,2
11,3,0
10,1,0
8,1,0
10,-1,4
9,-3,3
4,-2,1
5,-2,1
3,-4,0
2,-5,1
4,-4,3
4,-7,0
1,-3,0
2,-2,0
2,-1,0
1,1,-1
4,0,-2
3,-1,3
1,0,0
2,1,1
3,2,1
5,3,2
3,4,5
2,3,6
3,4,7
2,5,5
8,4,6
9,2,9
9,2,8
10,4,7
13,1,6
13,1,4
15,0,3
13,2,2
17,0,0
16,-2,2
16,-2,-1
17,0,-1
15,-3,-1
24,-4,0
22,-3,-2
24,-2,-3
23,0,0
17,0,5
10,5,6
2,7,8
-2,8,8
-8,11,9
-14,11,5
-19,15,8
-20,17,2
-13,18,-2
-3,25,-5
5,25,-7
16,26,-8
24,25,-9
32,22,-9
33,17,-5
39,7,-3
41,0,-1
35,-9,0
32,-15,2
24,-25,5
15,-27,8
6,-28,6
0,-31,5
-6,-26,8
-10,-25,6
-12,-22,5
-14,-19,4
-16,-17,2
-18,-14,0
-20,-7,-3
-14,-7,-4
-10,-5,-7
-8,-2,-9
-4,-1,-9
0,2,-7
0,0,-6
-2,5,-9
0,2,-5
-5,3,0
-6,3,0
-11,3,2
-13,0,6
-19,0,8
-18,-1,12
-21,0,10
-18,-3,10
-16,0,8
-7,-4,10
-2,-1,7
9,0,5
16,-4,2
27,-4,1
34,-4,-1
40,-6,-2
45,-8,-1
47,-5,-7
48,-7,-5
46,-8,-6
46,-9,-6
40,-12,-3
35,-11,0
29,-10,1
24,-12,2
17,-9,5
11,-8,1
7,-9,3
1,-6,3
4,-4,1
-3,-4,0
-2,-3,0
-4,-2,-2
-6,2,2
-5,1,0
-6,-1,1
-2,-2,2
-2,-2,2
-3,-3,1
-3,-4,3
2,-7,0
3,-6,0
4,-3,-2
5,-7,-1
6,-4,-2
7,-6,0
7,-6,0
11,-6,2
7,-4,-1
9,-4,-1
6,-2,-2
8,-2,0
6,-4,0
4,-3,0
3,-2,2
3,-2,4
0,-1,6
1,-3,8
0,-1,5
-2,-2,6
2,-2,8
3,-3,9
3,-2,9
6,-1,8
7,-6,10
11,-3,6
14,-3,5
12,-2,5
14,-3,7
14,-3,8
14,-1,6
14,-3,6
12,-2,7
9,-3,4
10,-3,6
10,-2,7
8,-3,6
12,-4,5
11,-4,5
13,-6,6
15,-4,4
20,-2,-1
21,-2,-2
18,0,0
12,5,-2
6,6,-1
3,9,1
-5,8,5
-15,12,10
-18,14,12
-16,21,8
-7,21,6
5,18,2
17,19,-1
27,20,-2
37,17,-4
43,9,-2
46,1,0
44,-6,1
41,-14,-3
36,-24,2
29,-31,3
19,-31,4
9,-33,6
0,-30,7
-4,-28,7
-10,-22,5
-15,-17,4
-16,-8,3
-18,-1,1
-19,2,3
-18,6,2
-15,11,-2
-14,15,-1
-9,14,0
-8,17,-2
-4,16,0
1,12,0
4,7,0
5,5,0
5,1,4
2,-3,4
-1,-5,6
-3,-11,7
-7,-11,11
-13,-13,12
-14,-10,10
-16,-7,12
-12,-8,12
-8,-6,11
-4,-2,9
5,0,8
14,2,4
16,2,2
22,7,1
31,8,0
32,8,0
35,4,0
39,2,0
41,0,2
38,1,4
36,1,0
35,1,4
30,0,2
28,0,3
26,0,1
21,2,1
14,2,3
13,2,4
8,1,5
7,4,6
7,3,4
3,5,1
4,5,4
3,3,5
3,4,4
4,2,4
4,2,3
7,-1,1
7,-2,1
8,-2,1
8,-2,-1
9,-4,-2
10,-6,0
7,-4,-1
8,-3,-5
8,-5,-1
3,-5,-1
3,-5,-5
0,0,-3
0,-1,0
-2,2,-3
-5,2,0
-5,4,1
-8,4,3
-9,6,1
-8,6,0
-9,4,6
-10,8,4
-5,8,2
-3,7,7
-1,9,6
1,8,6
7,5,5
10,4,8
10,3,6
12,0,7
14,0,5
15,-2,8
15,-6,7
21,-4,4
22,-5,2
22,-5,3
24,-10,5
23,-7,2
22,-7,3
25,-6,3
24,-4,0
26,1,-2
22,5,-4
17,11,-3
11,12,-2
7,15,0
0,18,3
-11,19,10
-16,23,12
-12,23,10
-2,26,6
8,25,1
20,18,-1
28,15,-5
31,10,-2
34,1,-1
34,-6,0
32,-14,0
26,-23,1
15,-29,0
10,-34,2
3,-37,0
-4,-35,2
-5,-35,4
-10,-26,5
-14,-16,4
-17,-10,3
-24,0,1
-22,6,5
-22,6,4
-22,15,4
-20,17,6
-18,22,4
-16,20,3
-9,19,3
-4,17,5
3,11,3
6,7,2
8,3,-1
12,-2,2
12,-4,3
9,-10,3
8,-11,3
8,-11,8
8,-11,10
3,-9,9
3,-9,12
8,-5,10
12,0,6
16,0,7
20,4,4
24,5,2
32,5,0
34,4,0
34,4,0
38,5,0
35,3,-1
35,2,0
36,0,0
36,1,3
33,1,2
32,2,3
28,2,3
23,1,4
21,2,2
18,1,4
18,6,4
14,5,1
10,8,2
9,8,1
8,6,2
8,5,2
7,4,0
7,1,1
8,0,0
7,0,-3
8,-1,-3
8,-4,-2
10,-1,-4
7,-5,-2
7,-4,0
7,-7,-2
3,-7,-2
2,-7,0
0,-6,-1
-3,-6,-1
-2,-4,0
-6,0,1
-9,3,-1
-9,4,1
-10,3,0
-10,3,1
-7,4,3
-5,4,2
-5,8,2
-6,7,3
-2,6,3
0,10,2
1,5,3
6,4,4
8,5,5
6,2,5
8,3,6
11,0,6
13,-2,5
15,-3,6
14,-4,2
14,-2,3
19,-6,2
19,-4,4
17,-3,-1
20,-4,1
20,-1,-5
22,0,-5
19,2,-6
15,7,-2
9,9,-5
3,14,-3
-2,17,2
-12,20,4
-17,20,9
-16,22,10
-5,26,6
6,24,2
14,23,0
23,20,0
27,12,0
29,6,-2
28,0,0
26,-12,1
25,-17,-4
19,-22,-1
14,-28,1
9,-31,-1
7,-33,0
-1,-27,-2
-6,-22,1
-9,-18,0
-13,-7,1
-18,1,0
-21,7,2
-22,13,3
-23,20,2
-23,23,3
-23,24,3
-20,23,0
-17,23,5
-15,17,4
-11,14,2
-7,7,2
-1,3,3
2,-2,2
3,-7,3
0,-13,2
1,-11,3
0,-15,1
0,-17,5
-1,-16,7
-3,-11,6
-3,-12,8
1,-6,9
8,-5,8
10,2,6
17,4,6
22,6,2
23,6,2
24,6,3
24,6,3
21,5,0
20,1,4
21,-1,0
19,-1,1
17,-3,2
13,-3,2
8,-5,0
8,-5,2
4,-5,0
-2,-4,1
-9,-3,3
-10,-2,1
-12,0,2
-12,1,0
-13,3,-3
-9,3,-3
-10,4,-1
-6,4,-5
-6,2,-2
-5,0,-8
1,3,-3
2,1,-7
1,1,-3
4,-3,-3
6,-3,-3
6,0,-6
8,-1,-3
7,1,-5
7,0,-2
8,0,-1
10,1,-2
9,0,-1
6,0,-1
3,2,-2
3,4,0
3,2,2
1,3,2
3,5,2
5,2,0
6,0,3
8,3,3
10,3,1
8,5,3
10,3,2
11,0,5
14,2,7
13,1,4
15,0,7
14,-2,5
17,-2,4
16,-2,2
18,-4,1
18,-3,0
20,-1,-1
22,-3,0
21,0,0
15,2,0
11,4,4
3,5,4
-3,6,7
-12,8,9
-22,13,16
-26,20,17
-23,22,13
-12,25,8
0,23,4
11,26,1
16,26,0
24,19,-1
29,11,-1
33,4,-2
33,1,-3
35,-7,-6
31,-11,-4
25,-14,-5
23,-16,-4
16,-18,-6
11,-17,-6
3,-18,-8
-3,-15,-10
-12,-10,-4
-17,-10,-1
-20,-3,0
-28,-4,1
-34,-1,2
-34,3,4
-38,5,5
-38,8,2
-33,9,4
-35,11,1
-30,12,3
-24,11,1
-20,11,-1
-14,9,1
-12,7,0
-6,2,-1
-2,2,3
0,3,0
3,0,-1
3,-1,0
4,0,0
6,2,1
11,0,-2
14,5,1
18,4,-2
25,9,0
27,9,-5
32,10,-5
35,8,-8
37,7,-5
33,5,-10
33,4,-11
34,3,-9
33,2,-7
29,0,-6
25,0,-7
20,-2,-6
16,-2,-3
13,-2,-5
7,-4,-4
3,-3,-6
0,-3,-9
-1,-4,-6
-7,0,-4
-8,-1,-7
-9,0,-3
-12,0,-5
-13,1,-5
-14,2,-8
-13,3,-9
-10,3,-7
-13,3,-9
-10,3,-6
-13,4,-10
-13,0,-10
-11,0,-9
-10,0,-6
-10,-2,-7
-10,-2,-7
-11,-1,-8
-9,0,-7
-9,-1,-5
-9,0,-5
-12,2,-6
-9,-1,-6
-7,0,-5
-6,-2,-6
-7,6,-8
-7,4,-8
-5,4,-6
-3,3,-7
-3,2,-7
0,2,-4
0,0,-5
0,0,-1
5,0,-3
4,-3,2
6,0,-4
5,0,1
6,-2,0
9,-3,-5
6,0,-7
7,-1,-7
9,-3,-3
11,-2,-5
10,-2,-8
6,3,-9
0,6,-6
-1,6,-6
-7,4,-4
-15,11,-2
-23,16,2
-29,17,6
-29,19,5
-28,24,3
-19,26,-2
-9,29,0
-1,29,-6
7,28,-7
15,21,-13
21,14,-10
27,9,-13
26,0,-17
26,-6,-16
23,-12,-12
18,-17,-9
12,-16,-9
6,-21,-5
1,-18,-6
-5,-19,-5
-11,-18,-2
-18,-15,-3
-23,-16,-1
-26,-14,-3
-29,-9,-3
-31,-7,-1
-34,-7,-4
-36,-5,-2
-32,-4,-2
-31,-2,-3
-28,0,-9
-28,4,-4
-28,5,-7
-28,6,-5
-27,8,-5
-25,9,-1
-26,7,-4
-25,4,1
-24,2,0
-21,7,0
-23,4,4
-18,5,4
-13,5,3
-13,6,4
-3,4,5
3,8,4
6,6,1
14,6,1
20,7,1
25,8,1
30,6,-2
30,3,0
37,2,-1
38,3,-4
37,-1,-6
34,0,-2
38,0,-4
35,-1,-3
31,-1,-3
27,-1,0
24,0,-1
21,-2,2
20,-1,1
15,-1,3
11,-3,2
10,-1,4
10,0,2
7,1,2
4,1,0
3,2,-1
2,3,-2
0,5,-3
-2,4,-4
-2,2,-2
-4,3,-2
-5,5,-4
-5,4,-4
-6,2,-4
-5,2,-3
-4,2,0
-6,0,-3
-8,1,1
-6,1,0
-8,0,-3
-6,0,-2
-7,0,0
-7,0,0
-5,0,1
-5,2,1
-4,4,1
-4,3,0
0,6,-1
0,6,-1
0,7,1
3,7,3
3,5,0
5,5,0
7,3,3
8,1,5
12,0,1
8,1,3
11,-1,2
12,0,0
14,1,3
15,3,0
15,1,0
16,2,-1
16,0,-4
17,1,-4
17,3,-1
11,4,-2
4,4,2
-4,7,4
-11,11,4
-18,12,9
-23,15,9
-24,21,9
-22,25,11
-15,26,8
-1,27,8
1,30,1
14,27,0
26,23,-3
31,18,-3
36,9,-4
41,2,-7
39,-2,-7
37,-10,-7
30,-13,-7
24,-16,-9
16,-20,-4
13,-18,0
4,-16,1
-3,-12,4
-6,-11,5
-9,-10,5
-14,-8,6
-18,-6,8
-15,-5,1
-18,0,0
-19,-2,1
-19,2,-3
-17,2,-4
-14,3,-1
-16,3,-2
-16,4,-1
-14,4,-1
-13,6,0
-13,5,0
-16,5,-1
-18,9,1
-18,7,0
-14,8,3
-19,12,2
-17,10,2
-14,10,1
-6,10,1
-3,7,-1
3,8,0
9,6,0
15,7,-1
20,8,-2
25,6,-2
25,4,-2
31,0,-1
31,-2,-1
33,-4,-2
30,-3,-5
31,-5,-4
29,-4,-3
26,-3,-2
22,-6,-2
17,-3,-3
15,-2,-3
9,-1,-4
5,-2,-1
1,-1,-2
0,1,-2
-4,2,0
-7,2,-4
-4,4,-4
-5,2,0
-6,4,-1
-7,1,0
-8,3,-5
-8,3,-3
-10,2,-5
-5,1,-2
-7,0,-5
-8,-2,-1
-6,-4,1
-3,-6,-4
-5,-5,-2
0,-4,-2
-1,-4,-2
0,-4,-4
2,-3,-2
1,-1,-1
-1,-2,1
0,-3,0
-1,-1,1
0,-1,-2
-1,-5,1
-1,-3,1
-1,0,2
0,-2,2
1,-2,4
0,-4,4
-2,-2,4
-1,-3,6
0,-3,6
3,-4,4
5,-1,5
5,0,6
9,0,5
7,1,3
13,-3,4
11,-3,4
10,-4,5
10,-9,1
13,-7,0
13,-8,2
15,-6,1
16,-6,0
18,-6,2
16,-3,0
15,-2,-1
8,2,0
0,3,2
-4,1,6
-11,4,7
-21,7,9
-24,11,11
-25,14,8
-22,14,8
-12,18,3
-2,21,2
8,19,-4
20,19,-2
29,16,-4
37,6,-4
40,-2,-1
39,-9,-3
36,-22,4
34,-25,4
26,-33,7
21,-35,8
12,-36,8
5,-33,9
-2,-30,10
-9,-26,12
-16,-21,10
-20,-17,9
-20,-13,8
-21,-9,8
-21,-1,2
-21,0,-1
-17,0,0
-14,5,-8
-11,6,-4
-9,8,-8
-6,7,-5
-4,10,-4
-2,10,-1
-4,8,-1
-3,7,3
-7,5,4
-7,6,6
-8,2,9
-9,2,11
-13,0,16
-10,0,19
-7,1,15
-5,0,15
1,-1,11
6,0,9
12,0,5
20,1,2
24,-1,0
28,-1,0
31,-3,-2
36,-5,0
39,-4,-1
34,-6,-4
37,-8,-2
35,-8,1
32,-5,0
28,-7,1
22,-8,5
20,-4,6
17,-3,9
13,-3,8
9,0,5
6,0,6
4,1,6
0,3,5
-2,2,0
-2,0,1
0,3,-1
-2,-1,-2
0,-3,-1
0,-3,-1
1,-3,-3
1,-5,-1
1,-3,0
0,-3,-5
-1,-3,-1
0,-5,-6
0,-3,-4
2,0,-5
2,-3,-5
4,-3,-4
0,-4,-1
1,-2,-2
1,-2,0
0,-3,3
-1,-4,1
-2,-3,0
0,0,1
0,-3,1
-4,-2,1
-3,-1,5
-4,-3,3
0,0,5
-1,1,5
0,-1,4
2,-1,6
4,1,3
6,2,6
9,2,4
10,0,9
11,0,6
10,2,6
11,-2,6
11,-5,8
11,-2,7
10,-2,6
9,-7,6
9,-4,4
11,-5,3
8,-5,3
9,-6,3
8,-3,2
11,-4,0
11,0,0
9,5,0
5,4,-2
0,7,0
-3,10,3
-10,10,3
-20,12,6
-27,15,12
-25,20,13
-18,21,5
-9,20,4
4,24,3
15,20,0
28,17,-2
33,10,0
39,5,0
42,-4,3
41,-15,4
40,-22,5
32,-32,7
28,-34,6
19,-38,9
9,-34,6
1,-28,5
-1,-22,5
-12,-12,3
-16,-6,2
-17,2,0
-21,6,2
-23,15,1
-22,18,3
-19,19,-2
-22,22,2
-18,20,2
-14,20,0
-11,15,1
-8,13,-1
-2,7,4
-5,4,4
-2,-3,9
-1,-3,10
-3,-3,13
-3,-6,11
-4,-9,9
-5,-7,13
-4,-4,13
-2,-5,11
3,-3,10
10,1,11
18,3,8
23,9,7
28,9,7
38,6,7
41,10,5
45,5,1
48,2,4
47,-2,0
48,-5,3
47,-4,4
44,-6,4
39,-6,1
38,-5,5
34,-4,4
32,-5,5
25,-3,5
20,-2,5
16,1,2
14,2,3
10,3,2
7,2,5
5,1,3
4,3,3
1,2,1
1,2,0
2,0,0
2,-2,0
1,-3,0
0,-2,-3
4,-3,-1
4,-6,0
2,-10,-1
4,-7,-1
2,-8,0
2,-7,0
1,-8,0
-3,-9,0
-4,-6,-1
0,-8,4
-4,-2,4
-3,-3,0
-8,-1,2
-6,0,4
-4,4,6
-4,2,4
-6,3,3
-3,2,3
0,2,4
2,1,7
3,1,6
7,-6,8
7,-3,7
17,-3,9
20,3,7
19,8,3
20,2,5
21,4,9
22,0,9
25,-3,9
27,-7,9
28,-6,7
33,-6,7
30,-4,7
24,-2,4
17,1,7
13,4,9
6,10,6
-4,12,12
-11,14,15
-13,16,16
-4,19,14
2,22,10
18,24,10
29,20,7
34,20,3
40,12,1
43,4,2
42,-6,0
41,-14,1
40,-21,0
36,-21,-2
26,-26,-6
22,-30,-3
15,-26,-5
8,-19,-4
-1,-8,-3
-8,3,0
-14,10,1
-19,15,8
-23,20,12
-23,28,12
-24,33,14
-21,35,17
-23,38,15
-16,37,15
-11,34,11
-9,34,12
-3,31,5
0,27,9
6,22,7
7,13,3
9,8,5
8,4,2
7,-3,7
6,-5,7
7,-11,7
9,-11,10
9,-9,13
15,-7,10
18,-2,13
26,3,10
29,3,12
35,7,12
35,11,13
38,18,16
39,18,9
40,15,6
40,8,4
35,4,1
36,9,2
31,9,1
29,6,-1
30,5,-3
25,6,-4
19,3,-2
14,2,-3
12,9,0
11,12,-1
9,12,1
6,12,1
4,21,-2
5,24,0
6,26,-1
5,22,-2
6,22,-1
3,25,0
1,23,-1
1,21,-1
2,19,-2
0,14,-2
-2,9,-3
-4,9,-6
0,13,-7
-1,17,-10
-2,17,-12
-4,14,-12
-7,21,-10
-7,23,-9
-10,23,-8
-12,25,-7
-10,27,-4
-10,27,0
-12,26,0
-9,29,2
-6,30,1
-4,31,0
-2,37,0
0,34,5
2,34,1
1,28,3
7,27,3
9,28,2
10,14,5
13,25,0
13,16,1
7,18,-3
5,53,0
1,45,-1
0,47,-2
-4,54,0
-8,51,6
-16,52,9
-14,53,11
-7,50,10
2,46,9
15,45,5
21,42,4
27,29,4
29,11,2
32,22,3
34,21,-1
34,2,0
27,17,-2
27,8,2
24,-2,0
17,-8,0
10,-39,3
4,-7,4
-2,1,2
-8,-1,4
-13,-3,2
-16,0,4
-20,5,1
-25,9,1
-27,16,0
-28,23,-2
-29,29,-3
-31,35,-2
-26,38,-9
-23,36,-7
-23,28,-9
-16,25,-6
-16,14,-5
-15,4,-3
-16,-6,0
-16,-15,1
-15,-23,0
-11,-34,4
-11,-38,7
-8,-42,9
-3,-44,6
1,-41,5
8,-42,0
14,-42,0
21,-39,-3
23,-41,-4
25,-39,-6
27,-38,-4
30,-38,-5
30,-36,-6
29,-34,-1
26,-33,-1
27,-29,0
25,-32,1
22,-26,-2
18,-25,-1
16,-22,-2
18,-14,-1
13,-8,-2
10,-17,0
3,-16,0
2,-14,0
0,-12,-1
-2,-11,0
-8,-8,0
-7,-10,-2
-6,-10,0
-6,-13,1
-5,-15,-3
-7,-18,-1
-9,-19,-5
-8,-19,-3
-11,-17,-3
-11,-18,-3
-13,-16,-4
-15,-14,-6
-17,-12,-5
-18,-10,-4
-18,-4,-5
-17,-5,-3
-19,-3,-2
-18,-3,-2
-18,-5,-1
-19,-6,1
-19,-7,-1
-14,-10,2
-16,-14,2
-12,-19,2
-8,-21,-1
-5,-24,0
-3,-23,1
0,-29,-1
3,-29,-1
8,-29,-3
15,-28,-3
12,-24,-2
10,-20,-3
8,-16,-4
6,-12,-4
7,-5,1
0,0,6
-9,4,10
-11,8,13
-6,15,13
0,18,12
8,20,9
24,16,8
31,17,4
36,17,3
38,11,0
40,3,0
39,0,0
34,-7,0
27,-12,1
26,-23,1
18,-29,2
14,-35,4
8,-37,3
1,-41,3
-4,-38,3
-10,-41,3
-17,-41,2
-21,-37,5
-27,-33,5
-26,-25,1
-29,-22,4
-25,-14,1
-23,-7,1
-18,-6,0
-12,-6,-1
-4,-4,0
-1,-2,0
4,-5,0
4,-10,4
5,-10,3
7,-13,5
7,-20,3
12,-19,6
17,-6,8
13,-17,7
13,-24,7
17,-25,6
22,-25,3
25,-22,1
31,-21,2
34,-15,-1
37,2,0
36,-17,-2
39,-23,-1
38,-24,-1
34,-21,0
36,-21,-1
37,-17,3
36,-12,0
33,-6,0
28,0,-2
26,8,0
23,13,4
21,17,3
18,20,7
17,22,3
13,21,7
11,23,4
10,20,7
10,19,8
7,16,4
7,15,3
9,12,2
5,6,1
4,3,3
2,0,2
3,-1,0
2,-2,2
0,-7,-1
-2,-5,2
0,-7,2
2,-6,4
1,-4,4
3,-2,4
0,0,1
0,4,2
0,4,1
0,6,1
1,7,1
-1,7,-1
0,8,0
0,5,-3
-1,7,-3
-1,6,0
0,3,-3
-2,6,-3
3,3,-2
2,2,-8
2,4,-7
-2,3,-4
-5,6,-5
-10,8,-2
-16,14,1
-25,17,6
-28,23,5
-27,29,6
-22,32,2
-16,31,0
-6,33,-1
0,31,-1
1,29,-3
7,26,-3
11,16,-2
14,13,-2
12,9,-4
9,0,-3
8,-2,-4
6,-8,-3
1,-10,-6
0,-11,-7
-5,-12,-10
-9,-13,-12
-12,-13,-16
-17,-10,-13
-21,-9,-14
-27,-3,-15
-31,-4,-14
-38,0,-11
-43,3,-11
-44,8,-10
-46,7,-7
-44,11,-4
-44,15,-4
-41,16,0
-35,18,0
-37,16,1
-35,14,3
-29,10,5
-22,10,1
-22,9,2
-18,4,2
-11,4,1
-6,6,-2
0,3,-1
8,0,-3
14,1,-2
22,0,-8
26,1,-9
31,1,-9
34,-4,-12
31,1,-15
33,0,-13
31,0,-13
29,0,-17
27,-1,-11
26,-3,-12
20,0,-12
18,0,-10
12,3,-7
9,2,-8
6,2,-8
1,3,-9
-2,7,-6
-4,6,-9
-8,8,-6
-9,9,-6
-11,7,-8
-9,9,-12
-12,9,-10
-12,7,-6
-14,11,-8
-12,6,-9
-11,5,-9
-9,5,-9
-10,3,-10
-11,0,-9
-5,0,-12
-9,0,-11
-9,-1,-12
-7,-4,-11
-9,-2,-6
-9,-5,-2
-2,-3,-3
-7,-1,-3
-4,-4,0
-1,-3,-3
0,-2,-7
2,-2,-6
0,0,-5
2,0,-7
5,-2,-7
10,4,-11
9,8,-8
9,5,-5
8,11,-4
4,13,-3
2,18,0
-2,20,2
-5,22,7
-9,25,9
-8,26,10
-6,30,12
4,27,10
8,27,9
21,23,4
25,20,1
32,12,-1
37,6,-1
40,0,-3
42,-9,-4
37,-12,-3
33,-18,-5
27,-17,-1
25,-20,-1
17,-16,1
8,-15,1
2,-14,3
-4,-11,5
-9,-11,4
-10,-9,10
-15,-7,8
-20,-3,8
-19,-1,8
-20,1,10
-22,7,4
-17,7,2
-15,10,1
-12,8,1
-9,9,0
-11,11,-3
-7,7,0
-8,6,0
-8,4,0
-9,5,0
-9,1,1
-12,3,4
-10,2,3
-5,0,4
-4,0,6
-1,4,5
0,3,1
5,2,0
9,2,3
12,3,0
16,2,2
20,1,0
17,-1,-2
24,0,0
24,-1,-4
22,-3,0
23,-4,0
24,-5,1
23,-6,3
21,-2,7
20,-6,6
17,-3,6
13,-3,8
13,-2,10
12,-3,10
11,0,6
8,-2,8
9,1,5
10,2,6
9,2,1
12,5,3
10,6,3
9,9,2
11,4,0
11,2,-1
7,2,-3
6,3,-1
8,1,0
7,2,0
6,0,-2
5,0,3
4,0,-1
3,-2,0
3,-2,1
1,-3,0
-1,-1,3
-2,0,-1
-4,-3,0
-5,0,0
-3,0,-4
-6,0,-3
-3,0,-3
-5,3,-4
-5,0,-4
-2,1,-3
-2,0,-3
2,0,-7
10,0,-7
5,3,-4
3,6,-2
0,7,-1
-5,9,5
-5,13,8
-15,16,10
-15,20,12
-17,20,14
-16,23,12
-6,23,10
2,21,8
10,21,8
19,20,7
30,18,5
38,13,4
43,6,-1
38,2,1
43,-4,0
40,-9,0
36,-12,3
29,-11,0
20,-12,2
13,-11,4
8,-11,7
0,-10,12
-6,-6,12
-12,-6,12
-15,-5,13
-18,-7,11
-20,-5,11
-19,-5,8
-18,-3,3
-15,-2,1
-16,-1,1
-12,1,-1
-12,1,-2
-16,3,2
-17,4,-1
-19,5,0
-21,6,-3
-23,6,-2
-23,8,0
-23,11,1
-25,9,1
-23,9,2
-20,9,2
-16,7,4
-8,10,0
-6,9,-1
4,9,-1
10,6,-2
17,4,-3
25,2,-4
27,3,-8
32,1,-8
35,-3,-9
35,-1,-8
36,-5,-9
34,-5,-8
31,-6,-6
28,-6,-5
26,-5,-2
20,-5,-1
19,-6,-3
15,-2,0
12,-2,2
8,-1,0
7,0,2
9,-1,2
1,2,1
4,0,0
1,2,0
1,2,0
0,2,1
0,5,-1
0,2,-3
0,2,-3
-1,4,-1
-5,5,-1
-1,0,-4
-3,0,1
-1,2,-1
0,1,-2
-2,1,-2
-1,0,-1
0,3,-1
-3,-2,-1
-1,1,-3
0,0,0
0,1,0
1,-2,-2
0,0,-3
0,2,1
0,0,-1
1,1,3
0,4,0
2,2,0
0,6,-1
4,3,0
0,3,0
1,3,1
3,2,1
4,0,1
5,2,4
3,1,0
4,0,-2
5,-1,-1
5,0,-2
6,-3,-1
7,-2,-1
7,-1,0
11,0,-1
12,0,-4
16,2,-3
14,2,-4
3,3,0
-3,8,0
-5,7,2
-11,8,1
-18,10,4
-25,12,5
-26,15,6
-22,18,3
-13,19,1
-3,21,-2
5,23,-3
12,20,-5
28,14,-7
32,6,-8
38,0,-7
37,-10,-8
38,-13,-5
32,-22,0
22,-25,-1
16,-29,0
8,-30,3
0,-26,3
-7,-24,6
-14,-22,6
-23,-18,5
-24,-15,6
-24,-11,5
-24,-5,3
-22,-4,4
-25,-3,-1
-19,-1,-4
-17,1,-8
-9,0,-8
-8,1,-11
-6,3,-16
-4,6,-14
-5,3,-10
-7,8,-6
-8,4,-2
-13,7,-3
-13,4,0
-14,4,3
-19,6,6
-16,2,10
-16,-1,10
-13,0,10
-9,1,10
1,-2,11
7,-2,7
14,0,1
21,-4,2
27,-5,-2
33,-5,-7
38,-5,-4
39,-7,-7
40,-8,-8
41,-9,-6
37,-9,-6
35,-8,-4
30,-7,-3
26,-7,-5
18,-7,-3
17,-4,2
13,-4,2
9,-2,3
2,-1,0
1,1,3
-3,1,2
-5,1,1
-6,0,4
-7,4,3
-8,0,0
-6,2,0
-9,1,1
-11,3,-2
-8,1,-2
-8,2,-5
-8,5,-5
-8,7,0
-9,6,-1
-7,6,0
-4,5,1
-7,5,0
-5,5,-3
-4,3,0
-3,6,-2
-1,2,-5
3,0,-3
2,-1,-3
1,-2,-3
0,-2,-1
1,-1,3
4,-4,4
-1,-1,1
1,-4,4
0,0,3
3,-1,2
0,0,2
0,-1,3
0,0,2
0,0,4
0,-3,5
1,1,6
0,2,3
5,1,6
6,1,3
8,-2,3
12,-1,5
10,0,5
10,-3,7
9,-2,6
7,-3,8
8,-4,2
9,-4,4
8,-5,6
12,-3,4
12,-6,5
12,-4,2
12,-3,3
18,-5,1
21,-5,-3
19,0,-2
20,0,-3
14,0,-3
9,4,-5
4,5,-4
-4,7,-1
-13,9,0
-21,10,8
-23,12,10
-19,14,9
-10,16,4
3,19,4
11,22,4
24,18,0
31,14,-4
37,5,-2
42,-5,2
41,-12,1
38,-24,1
32,-31,4
27,-35,5
18,-33,8
9,-35,8
0,-30,9
-4,-26,10
-12,-19,11
-15,-13,9
-21,-4,8
-22,3,5
-20,7,4
-20,10,0
-21,17,-1
-16,15,0
-14,17,-7
-9,14,-2
-6,16,-4
-4,10,-5
0,9,0
-1,5,-4
1,0,0
-2,-3,7
-5,-4,4
-7,-8,7
-10,-7,8
-10,-8,9
-9,-7,10
-10,-5,10
-6,-1,8
2,0,7
8,2,7
12,4,2
19,8,5
24,10,1
28,9,3
29,8,-1
30,10,-1
29,9,-1
27,7,0
25,6,-1
21,7,1
19,4,-1
17,4,0
9,7,-1
10,7,1
7,7,2
5,8,4
3,9,5
0,10,4
0,10,6
0,9,9
0,8,5
0,7,4
0,6,5
3,3,6
3,4,3
7,0,3
6,0,3
7,-1,0
8,-2,0
11,-3,2
11,-4,-1
9,-1,-2
8,-4,-2
9,-3,-2
9,-4,0
7,-3,0
5,-2,0
4,-3,2
0,-2,-3
2,-1,0
0,3,2
-2,0,0
-1,2,3
1,4,2
0,7,7
1,7,5
4,9,8
5,5,5
5,4,7
5,2,8
9,1,8
10,3,5
9,2,5
14,2,8
17,-2,6
16,-4,9
19,-5,6
19,-7,7
22,-5,0
25,-4,0
23,-2,4
15,5,-1
11,3,0
9,9,3
1,16,5
-9,17,10
-14,20,15
-16,22,8
-9,24,12
1,26,9
11,27,3
20,24,1
29,19,3
36,11,2
37,4,0
39,-5,6
37,-16,7
34,-28,8
30,-30,7
23,-36,9
15,-37,6
10,-32,6
5,-32,6
-1,-23,5
-5,-14,3
-12,-9,5
-16,-2,4
-19,2,9
-20,8,4
-24,16,4
-21,18,4
-20,21,2
-15,19,0
-17,19,1
-9,20,-1
-6,16,-2
-3,11,-1
0,3,1
0,1,0
1,-2,2
1,-6,2
3,-9,7
0,-11,5
2,-11,7
0,-10,8
4,-9,7
5,-8,8
12,-3,6
16,-1,4
20,2,4
20,8,1
27,7,0
24,9,-1
20,5,-1
17,8,0
13,8,2
12,11,0
9,13,-1
7,14,-1
0,16,-1
0,22,-1
-4,19,0
-6,25,-1
-8,24,2
-7,23,0
-11,23,5
-11,22,1
-12,19,0
-10,17,-2
-9,13,-1
-7,6,0
-7,7,-2
-8,4,-5
-7,1,-7
-4,-2,-3
-7,-7,-8
-8,-4,-8
-10,-9,-6
-9,-10,-9
-12,-10,-11
-12,-11,-9
-13,-14,-6
-14,-11,-5
-22,-8,-2
-22,-8,-5
-24,-6,-1
-22,-3,1
-21,-2,4
-22,0,0
-16,0,2
-14,2,0
-9,4,-1
-6,0,0
-5,0,-3
-1,-1,-4
0,0,-3
5,-4,-3
7,-2,-8
13,-5,-3
15,-6,-3
20,-7,-6
21,-8,-7
26,-5,-2
20,-5,-2
13,-2,0
10,-1,2
3,6,4
-8,10,7
-16,15,10
-23,15,12
-24,20,13
-17,21,10
-8,22,7
1,25,0
11,24,3
21,18,1
26,16,-3
34,6,-3
36,1,-2
35,-7,-3
31,-14,-4
29,-19,-1
22,-22,-4
15,-21,-3
10,-22,-4
3,-22,-5
-3,-20,-4
-11,-18,-6
-18,-11,-5
-24,-11,-2
-26,-8,-2
-31,-6,-4
-34,-2,-2
-35,0,-2
-34,2,-6
-36,7,-3
-31,2,-3
-31,5,-4
-29,6,-1
-25,5,1
-22,5,3
-17,6,3
-16,2,4
-11,0,7
-8,1,3
-5,1,5
-5,-2,4
0,-1,4
4,-4,7
4,-3,6
7,-1,1
14,0,1
19,0,2
24,-1,0
27,1,-2
33,2,-5
31,2,-3
35,-1,-5
30,2,-4
32,-2,-5
29,1,-6
27,-2,-3
21,2,-7
16,1,-3
14,1,-4
13,2,-2
7,1,-3
0,3,-3
-1,3,-2
-5,3,-5
-9,2,-3
-9,1,-5
-12,2,-3
-11,1,-5
-14,3,-7
-12,2,-10
-13,2,-9
-12,2,-6
-14,0,-7
-12,-1,-9
-13,0,-9
-13,1,-11
-13,3,-10
-12,1,-8
-13,3,-10
-11,2,-7
-10,4,-8
-10,5,-8
-10,3,-5
-9,6,-8
-6,5,-9
-6,7,-7
-5,7,-7
-4,2,-3
-3,1,-5
0,2,-6
2,1,-5
1,-3,-5
3,-2,-2
3,-1,-4
4,0,-6
4,-1,-5
5,-1,-5
9,-3,-3
10,-2,-3
10,4,-6
9,6,-1
1,7,1
-2,12,-1
-1,15,2
-8,16,4
-15,15,6
-20,22,7
-20,24,9
-16,26,6
-11,27,2
-3,26,1
5,25,2
15,21,-1
26,16,-5
31,10,-7
37,6,-12
40,-1,-9
38,-8,-10
38,-16,-11
33,-19,-9
25,-21,-6
16,-20,-7
12,-20,-1
4,-17,0
-2,-16,2
-6,-12,2
-16,-6,0
-18,-5,5
-22,-3,3
-25,0,4
-27,-1,2
-24,0,1
-26,3,0
-27,2,-4
-26,2,-3
-24,5,-5
-24,3,-6
-21,7,-5
-20,3,-6
-23,7,-3
-21,5,0
-22,4,-2
-21,7,2
-18,4,2
-20,3,6
-16,8,8
-16,5,6
-11,7,6
-5,8,9
1,8,7
5,8,4
12,8,6
19,7,5
23,4,4
28,5,3
35,1,3
33,3,0
41,-4,-1
39,-5,-5
38,-5,-3
37,-9,-4
36,-10,0
31,-10,-2
28,-12,-2
23,-12,0
20,-7,3
17,-8,2
11,-5,0
7,-6,0
4,-5,0
3,-3,2
1,-3,1
-1,-1,1
-2,1,0
-4,2,1
-8,3,-2
-6,3,1
-9,4,-5
-7,4,-4
-9,5,-4
-9,1,-5
-8,0,-7
-9,-1,-4
-12,-1,-6
-10,-1,-9
-8,0,-8
-10,0,-4
-9,3,-7
-6,0,-4
-5,0,-7
-6,0,-7
-5,1,0
-1,1,-2
-1,4,-4
-2,3,-4
-1,6,0
1,6,0
2,7,3
3,5,0
6,5,4
9,4,3
9,4,2
10,1,2
9,3,1
10,3,2
8,3,1
11,0,-2
13,0,0
13,1,0
13,0,-1
14,0,1
16,1,-4
20,3,0
20,4,0
12,4,0
5,9,2
0,6,3
-5,10,7
-13,12,4
-19,13,6
-20,17,6
-22,21,4
-18,20,7
-8,27,4
-2,28,1
6,29,-1
16,28,-5
25,19,-5
30,9,-3
35,4,-4
35,-4,-4
34,-10,-1
29,-16,-1
25,-17,0
18,-20,1
11,-23,5
4,-20,5
-2,-15,5
-7,-15,8
-12,-12,3
-15,-11,1
-17,-4,2
-19,-4,-2
-19,-4,-3
-19,-1,-4
-20,0,-6
-15,0,-10
-17,0,-9
-13,1,-10
-14,3,-9
-12,2,-7
-11,3,-6
-14,4,-4
-13,3,-2
-16,2,3
-17,3,3
-19,3,3
-18,2,2
-15,4,2
-18,0,0
-15,1,0
-11,2,2
-5,1,0
1,0,0
3,0,-3
8,-2,-4
18,-4,-3
19,-5,-5
25,-4,-5
28,-8,-8
28,-3,-7
30,-5,-4
31,-7,-6
30,-9,-5
29,-8,-4
30,-8,0
24,-6,0
22,-7,2
17,-7,4
15,-2,5
12,-4,10
8,-3,3
5,-4,6
6,-4,6
0,-2,4
1,-1,5
0,0,1
-2,-2,2
-3,0,5
-4,-6,1
-4,-5,2
-3,-5,3
-1,-5,2
0,-5,2
0,-6,1
2,-9,2
3,-8,0
6,-9,2
7,-12,3
8,-10,3
9,-8,0
8,-8,3
8,-5,0
6,-9,3
6,-6,1
6,-6,2
5,-6,1
2,-7,1
0,-6,2
3,-5,5
1,-4,2
0,-3,3
-1,-4,5
0,-4,3
0,-5,6
0,-5,2
0,-3,7
-1,-3,5
3,-1,6
5,-2,5
6,-2,4
7,0,3
9,-1,5
11,0,1
15,1,4
14,-2,4
11,-1,7
9,-1,5
9,0,3
8,-2,6
7,-1,4
6,0,4
5,-1,2
4,-3,3
4,-2,5
3,-5,2
5,-4,1
7,-4,1
9,-3,0
14,-3,-2
13,0,-2
11,3,0
6,3,0
-1,9,-1
-5,11,0
-11,11,5
-20,14,9
-25,16,11
-21,20,11
-13,22,6
2,23,2
12,24,2
23,19,0
33,9,2
38,1,2
42,-5,4
43,-14,5
40,-20,7
37,-26,11
29,-31,13
22,-34,11
16,-32,13
9,-29,11
0,-18,11
-4,-13,13
-9,-9,12
-13,-3,9
-16,0,6
-16,5,3
-16,11,-1
-14,15,-1
-15,14,0
-11,17,-3
-11,13,-3
-8,15,-3
-5,9,-3
-3,5,-2
-1,0,-1
-1,-2,0
-4,-5,4
-6,-7,3
-10,-8,7
-14,-10,3
-12,-9,8
-18,-7,10
-15,0,8
-12,0,9
-13,0,7
-2,4,6
1,6,3
9,6,3
12,6,-1
25,6,-1
23,7,-1
26,9,-2
28,7,0
29,5,-3
30,4,-2
26,0,0
27,0,0
22,0,2
19,-1,2
15,0,1
11,-1,4
11,-1,6
6,5,4
6,6,8
4,4,5
5,5,8
2,8,8
0,8,8
1,9,7
3,5,4
5,4,4
7,3,3
7,2,6
8,4,0
10,1,2
10,3,0
11,0,-1
9,-2,-1
12,-2,-3
14,0,0
14,0,-1
12,-1,-1
13,-1,1
9,5,0
10,5,0
10,5,1
3,7,0
4,6,6
4,7,3
0,4,6
1,6,6
1,5,7
0,4,10
-1,5,6
1,3,8
2,4,10
4,5,7
2,4,7
2,4,9
3,6,7
6,6,8
8,5,10
10,4,10
12,4,10
14,5,10
17,3,6
18,3,8
18,3,11
19,3,10
19,0,8
18,2,4
19,0,4
19,-1,7
19,-1,1
18,-4,4
19,-4,3
20,-3,1
21,-2,0
21,3,0
19,2,-3
13,8,-2
9,7,-3
3,10,-3
-3,14,1
-11,18,4
-19,20,9
-16,23,9
-11,25,8
0,24,2
9,24,-2
19,21,-3
27,18,-4
35,10,-3
34,0,-2
33,-9,-3
33,-13,0
26,-23,0
23,-24,5
14,-29,7
7,-31,5
0,-26,6
-7,-17,3
-10,-13,6
-16,-5,6
-20,3,3
-21,7,5
-22,12,5
-22,16,0
-21,20,0
-17,20,-2
-17,21,-2
-13,20,-1
-13,18,-5
-5,11,-1
-3,7,-1
0,2,-3
3,-3,0
2,-6,3
0,-9,2
-2,-13,3
-5,-13,6
-4,-14,7
-5,-12,6
-7,-8,9
-10,-9,9
-6,-2,9
-2,0,10
2,6,6
12,8,6
15,9,1
22,15,-1
27,11,0
31,12,-3
29,12,-5
32,5,0
30,7,-3
26,4,-2
22,0,0
19,-2,1
17,-4,1
13,-2,0
8,-1,4
6,-5,6
5,-4,4
1,0,3
-1,3,-1
0,0,3
-2,2,0
-2,5,1
0,1,-3
-4,1,-2
-4,0,-5
-4,-5,-8
-2,-3,-8
-2,0,-4
-5,0,-4
-3,-1,-5
-4,0,-4
-5,3,-2
-9,0,-3
-6,1,-3
-8,3,-3
-6,0,-2
-8,2,0
-8,2,-4
-6,0,-1
-5,3,0
-4,2,-2
-3,0,1
-6,0,2
-3,1,4
-1,-1,6
-1,0,4
1,-1,5
3,0,4
5,-3,4
5,-1,5
4,-4,10
5,-3,4
6,-2,1
6,-3,6
9,1,2
7,-3,4
8,0,2
9,-5,1
9,-2,2
12,-1,0
10,1,-1
7,3,-3
2,4,-1
-3,8,0
-7,9,0
-12,13,2
-22,12,6
-28,21,8
-26,23,9
-19,25,6
-6,23,2
4,26,-2
14,16,-3
25,17,-5
27,6,-6
34,1,-2
35,-5,-8
32,-13,-6
28,-18,-5
22,-24,-6
14,-28,-4
9,-27,-2
0,-23,-8
-6,-25,-3
-13,-18,-2
-22,-15,-6
-26,-10,-3
-32,-9,-6
-35,-2,-5
-38,0,-6
-40,1,-7
-40,4,-7
-38,12,-6
-39,7,-5
-36,7,-5
-36,14,-3
-31,11,-3
-32,7,-2
-28,7,-1
-24,2,1
-20,4,0
-19,0,2
-20,0,3
-16,-3,0
-13,-2,2
-11,-4,3
-11,0,2
-7,-2,4
-3,0,4
0,0,4
5,2,4
14,5,4
17,8,0
24,9,0
25,7,-3
32,7,-2
33,9,-4
35,6,-3
36,5,-3
37,5,-4
33,0,-3
33,1,-4
32,0,0
28,0,-3
23,0,0
20,1,-4
15,0,-2
12,-1,1
6,0,-3
1,1,-4
-1,0,-5
-2,4,-6
-5,0,-4
-8,2,-6
-9,3,-9
-10,1,-10
-10,2,-10
-13,3,-7
-13,-1,-9
-12,2,-7
-16,0,-11
-16,-1,-7
-16,0,-12
-17,0,-11
-18,-1,-12
-17,-1,-10
-19,1,-9
-16,1,-9
-16,3,-9
-15,4,-8
-13,3,-9
-14,3,-7
-10,5,-8
-12,7,-10
-9,6,-5
-7,7,-5
-6,7,-5
-5,6,-4
-5,3,-3
-4,3,1
-2,4,-2
-2,6,0
-4,3,0
0,1,-1
4,1,0
6,0,1
3,-2,0
6,-1,-3
9,-1,-1
16,0,-1
16,3,-4
11,8,-1
8,4,0
6,6,2
4,11,2
-4,15,4
-11,18,5
-17,21,9
-15,25,6
-13,28,6
-3,28,6
6,33,1
14,23,1
23,19,-2
28,15,-5
35,5,-3
37,-2,-5
35,-8,-5
35,-13,-6
32,-20,-6
26,-17,-4
19,-19,-2
13,-14,-4
7,-12,-1
3,-8,3
-3,-3,4
-9,-1,4
-10,-1,4
-16,4,5
-17,2,5
-20,3,8
-21,4,2
-21,5,1
-22,7,0
-18,6,-1
-17,8,-2
-20,5,-2
-17,3,-2
-17,5,-1
-17,6,1
-17,8,0
-17,6,-1
-14,6,2
-13,7,3
-8,6,3
-7,4,1
-5,4,7
-6,6,2
0,5,3
2,4,4
5,0,-1
11,4,-1
17,5,0
20,5,-2
22,5,-3
27,4,0
24,3,-3
26,0,-5
27,0,-3
27,1,-3
27,-1,-2
27,0,-3
23,-1,3
22,-1,0
18,-1,0
10,-1,1
11,-2,1
7,-1,0
3,1,0
1,0,0
0,1,1
-1,2,0
-1,3,-1
-2,0,-3
-6,3,-7
-6,6,-3
-8,6,0
-5,5,0
-7,1,-2
-6,2,0
-8,2,-1
-9,3,2
-11,0,0
-9,1,1
-7,4,0
-5,0,3
-4,0,2
-2,0,1
0,0,5
0,1,3
2,0,0
0,0,2
3,0,1
6,1,5
7,0,3
8,-1,4
6,-1,1
7,-3,0
8,-1,0
9,-1,4
4,1,4
5,-1,5
3,3,1
5,1,4
3,2,1
3,6,1
3,3,3
2,7,3
7,2,3
6,2,3
6,3,2
6,-2,1
8,4,-2
7,0,-1
7,-1,-2
8,-2,-3
7,-4,-3
7,-3,-5
10,-1,-4
11,0,-6
13,2,-4
10,4,-6
0,4,-2
-7,8,-1
-14,9,0
-20,14,0
-24,14,2
-30,16,1
-32,20,3
-29,22,-1
-19,26,0
-10,26,0
-2,29,-4
7,21,-3
17,15,-6
26,10,-5
32,1,-7
35,-5,-3
33,-11,-3
33,-16,-5
29,-24,0
23,-22,0
15,-22,2
12,-19,5
7,-17,4
0,-13,5
-3,-12,9
-6,-9,4
-5,-9,4
-7,-11,6
-10,-12,0
-9,-8,0
-11,-11,-3
-8,-11,-7
-11,-12,-7
-7,-13,-12
-10,-9,-9
-9,-9,-8
-13,-7,-10
-16,-4,-10
-19,-5,-6
-20,-1,-3
-29,-1,-2
-27,0,-1
-28,1,-1
-31,-3,2
-30,0,0
-29,2,1
-29,1,3
-25,0,4
-16,-2,1
-7,-3,0
0,-2,0
5,-4,-3
12,-5,-4
17,-5,-4
21,-5,-5
27,-2,-5
28,-6,-5
30,-5,-7
28,-8,-8
27,-7,-4
30,-8,-3
24,-5,-2
20,-6,0
17,-7,1
14,-6,1
9,0,3
8,1,1
6,-3,3
2,0,2
-1,0,2
2,0,2
0,-2,1
0,1,0
0,0,2
0,-3,-1
0,-1,1
0,-3,0
-1,-4,0
0,-5,-1
0,-4,-1
1,-5,-1
1,-1,1
0,-3,-3
1,-1,0
3,-2,0
2,-2,0
7,0,-2
5,-4,-2
6,1,1
5,3,0
4,0,0
4,2,0
1,-1,1
2,-1,0
1,-2,2
-1,1,2
-4,1,0
-1,3,0
-1,1,2
-1,0,4
-1,-3,2
0,0,1
-1,0,3
2,0,5
2,0,4
0,0,4
3,0,4
2,-1,2
6,-2,6
4,0,5
3,-2,5
3,1,5
5,0,4
2,0,2
4,2,4
5,0,3
6,-2,5
4,-2,3
3,0,4
5,0,6
2,0,3
3,-3,3
4,0,0
2,-4,1
3,-2,1
3,-5,2
6,-4,1
6,-5,1
5,-5,2
10,-4,3
17,-7,2
17,-6,2
21,-6,-2
22,-2,-5
14,0,-4
7,2,-3
4,5,-2
-2,7,5
-12,11,2
-20,14,6
-21,19,6
-15,23,5
-8,25,3
5,28,2
17,27,-1
26,21,-2
33,12,-5
41,1,1
42,-9,1
38,-18,5
33,-27,6
27,-31,10
20,-38,8
17,-38,10
7,-34,12
2,-30,11
-6,-24,13
-8,-16,9
-14,-6,7
-18,-1,5
-18,2,0
-16,11,3
-15,11,-2
-15,16,-5
-14,13,-1
-11,15,-2
-8,10,-5
-4,10,-3
0,8,-3
0,2,-4
4,-1,-4
4,-2,0
2,-3,2
-3,-6,3
-5,-4,4
-5,-5,7
-7,-5,10
-11,-3,7
-11,-3,8
-9,0,10
-8,2,7
0,4,1
3,6,5
9,10,0
17,9,0
19,9,0
27,5,0
28,4,0
30,1,0
28,0,0
28,-3,0
26,-4,1
26,-6,2
19,-3,4
18,-5,4
11,0,5
14,-1,9
7,1,6
3,6,6
4,4,8
0,6,7
2,7,5
-2,7,4
-1,7,6
-1,7,3
0,2,5
0,4,2
1,1,1
-1,0,4
0,0,1
3,-2,-3
2,0,0
8,-1,0
5,-3,-3
6,0,-1
4,-3,-1
8,-6,1
7,-6,0
5,-4,-2
5,-2,0
3,-1,0
5,-3,1
3,-2,2
0,0,1
0,2,1
0,1,2
0,3,5
2,0,7
2,3,4
1,1,7
3,4,8
3,5,8
5,5,8
4,6,8
7,5,7
6,5,9
11,6,9
14,7,9
13,5,11
15,5,11
14,6,11
16,5,8
20,3,11
19,6,11
18,4,10
20,2,10
20,1,11
17,1,8
16,3,6
17,0,4
16,-1,4
19,-3,3
18,-7,3
18,-3,2
17,-5,1
13,0,0
15,-1,0
16,0,-2
14,0,-3
10,3,1
6,5,-2
-2,7,-2
-6,10,-3
-14,14,3
-23,17,4
-30,21,9
-28,24,8
-20,25,3
-9,25,1
5,27,-1
12,22,-5
21,17,-6
25,9,-4
29,-2,-3
29,-10,-2
27,-19,0
22,-27,1
15,-30,2
9,-31,5
1,-30,7
-5,-28,9
-9,-24,7
-11,-14,8
-9,-10,9
-14,-5,8
-17,4,7
-14,9,8
-15,15,6
-13,15,2
-11,17,1
-9,17,1
-8,15,0
-3,11,2
-3,8,0
-1,3,0
4,0,0
6,-4,1
4,-6,2
4,-9,1
0,-10,2
-1,-10,4
-3,-9,3
-7,-8,4
-5,-4,3
-11,-2,3
-10,-2,6
-9,2,9
-5,5,4
0,9,2
9,8,4
11,10,2
15,9,0
20,4,0
21,4,0
21,3,-1
20,-1,-2
16,-6,1
16,-3,-2
15,-3,-1
8,-3,0
9,-3,0
9,-6,0
2,-6,-1
0,-2,-2
-1,-1,-1
-2,2,-3
-6,4,-3
-8,4,-2
-5,2,-2
-8,4,-5
-6,0,-5
-7,1,-4
-7,0,-3
-7,0,-4
-5,0,-4
-6,-1,-4
-7,-2,-3
-8,-2,-2
-8,-4,-7
-6,-3,-3
-5,-2,-3
-5,-1,-5
-2,-3,-1
-3,-2,-4
0,1,-2
0,0,-4
-2,2,-4
-4,1,-1
-2,2,0
-4,3,-3
-4,4,-1
0,2,0
-2,7,1
0,5,2
2,3,2
3,6,1
2,9,3
9,5,6
10,5,6
9,1,3
11,-1,4
13,-3,4
13,-3,1
13,-7,1
14,-3,1
15,-8,-1
13,-6,0
12,-4,-4
11,-5,-9
8,-7,-6
7,-7,-6
7,-3,-8
5,-1,-8
-2,4,-9
-12,7,-6
-21,8,-4
-25,12,-3
-33,18,1
-44,22,3
-45,24,9
-41,28,5
-30,31,6
-19,33,0
-3,33,-1
9,29,-5
19,25,-6
30,14,-10
35,4,-8
39,-4,-8
40,-11,-8
38,-16,-7
37,-20,-5
31,-23,-5
22,-23,-4
16,-22,-2
9,-20,-2
1,-18,-1
-6,-10,-1
-10,-9,1
-15,-8,3
-20,-5,2
-24,-2,1
-26,0,-3
-29,2,-2
-30,3,-4
-29,5,-7
-28,6,-4
-26,6,-6
-30,5,-10
-27,5,-9
-27,2,-8
-24,4,-8
-23,2,-5
-24,0,-4
-26,0,-5
-26,0,-5
-22,0,-6
-23,-2,-3
-20,1,-1
-20,0,-6
-19,6,-1
-15,5,-3
-9,7,-2
-3,7,-4
-1,8,-7
4,8,-5
7,8,-8
10,4,-7
14,3,-9
17,3,-5
19,1,-8
16,0,-9
19,0,-9
19,-2,-10
18,-1,-8
12,-3,-6
14,-2,-5
11,-6,0
9,0,-2
5,2,-1
3,0,-1
2,0,0
-1,2,1
-2,1,0
-4,1,0
-2,2,-4
-3,1,-5
-3,1,-1
-5,1,-4
-3,1,-2
-4,2,-1
-5,0,-3
-5,3,-3
0,-1,-2
-1,0,-4
-1,0,0
-3,0,-1
-2,0,-2
0,-1,-3
0,1,-1
-3,2,-1
0,4,0
-3,5,1
-2,3,2
-2,2,2
-2,2,2
0,2,4
0,2,0
0,5,3
-2,7,2
-1,4,2
0,5,4
1,6,5
2,1,4
4,3,5
2,0,5
5,0,4
5,-1,7
8,-4,5
7,0,2
10,0,0
10,2,0
9,-1,-1
12,-1,2
15,0,-1
14,1,-1
16,4,-5
12,4,0
5,5,-2
-2,8,0
-8,10,2
-12,9,4
-18,16,3
-23,17,6
-27,19,7
-29,22,7
-17,24,9
-13,31,3
-4,29,2
4,28,-1
16,18,1
21,14,-2
28,6,-4
34,0,-5
29,-6,-6
29,-10,-5
25,-13,-2
22,-14,-4
14,-17,-2
9,-16,2
7,-9,2
-1,-8,3
-8,-6,5
-8,-6,5
-13,-2,5
-14,-1,4
-16,-2,4
-14,-3,2
-15,-1,0
-13,0,0
-12,-1,-3
-10,0,-2
-9,2,-5
-11,4,-3
-12,3,-6
-11,3,-2
-9,5,-3
-10,8,-2
-12,5,-1
-14,7,0
-10,8,4
-11,8,-3
-9,7,-1
-10,7,1
-7,7,4
-8,7,-1
-3,9,1
1,7,0
5,10,-6
8,11,-6
13,9,-10
18,6,-8
21,2,-8
21,2,-7
24,-1,-9
22,-2,-8
20,-3,-7
21,-4,-9
19,-4,-6
12,-4,-5
15,-7,-2
9,-3,-3
6,-6,0
1,0,-3
1,-1,0
-5,1,-3
-7,0,-1
-7,2,-3
-9,5,-3
-11,3,-3
-13,5,-2
-11,4,-6
-11,7,-6
-9,3,-3
-10,1,-4
-10,2,-4
-9,1,-4
-7,2,-2
-6,0,-2
-9,0,-4
-4,0,-1
-3,0,-3
-5,0,-2
-2,0,-3
1,0,-3
1,1,1
0,0,-3
0,2,-3
0,0,0
-1,1,-2
1,3,-2
1,2,-1
2,-1,-1
2,-3,0
1,-5,1
0,-1,0
-1,-4,-1
-1,-4,2
-1,-4,3
-3,0,0
-2,-2,0
-4,-2,0
0,-1,5
0,-1,4
3,-2,4
4,-2,2
5,-2,4
5,-2,3
7,-7,5
5,-10,2
7,-6,3
8,-7,1
10,-8,-1
11,-6,0
11,-7,-1
12,-5,-3
11,-5,-4
16,-4,-5
14,-4,-6
13,0,-3
4,-1,0
-3,1,0
-9,0,3
-14,3,4
-23,5,3
-27,5,8
-31,11,3
-26,16,3
-19,20,1
-7,21,-3
3,20,-5
14,24,-8
22,20,-11
32,11,-6
39,0,-5
40,-9,0
35,-18,0
33,-26,0
27,-32,7
25,-31,6
16,-33,11
10,-32,10
0,-31,9
-1,-23,10
-5,-22,12
-10,-16,8
-9,-11,6
-14,-6,7
-13,-5,5
-13,0,4
-9,2,-1
-9,3,-3
-7,5,-4
-7,8,-4
-5,7,-3
-5,9,-4
-2,9,-2
-2,5,0
-5,5,2
-3,0,6
-6,0,6
-9,0,5
-9,-4,10
-8,-7,13
-6,-11,9
-7,-10,10
-8,2,10
-5,-4,11
2,-9,10
8,-9,10
13,-9,9
16,-8,8
27,-7,5
29,-7,4
31,-4,3
36,-7,0
36,-3,2
35,-3,0
30,-4,1
32,-3,1
29,-3,1
27,-2,2
22,0,1
18,-4,3
12,-2,3
9,0,3
7,1,1
5,-1,5
2,2,1
0,1,2
-1,2,2
-5,2,1
-2,1,0
0,1,0
-5,1,-1
-1,0,-1
0,-2,-1
-3,0,-4
-3,-4,-2
0,-4,-5
-3,-2,-4
-2,-3,-6
-2,-2,-3
0,0,-3
-1,1,-3
-1,-1,-3
1,3,-2
1,0,-1
2,0,-4
4,0,0
1,3,-1
3,2,-2
0,2,2
-1,3,1
0,3,3
0,6,1
0,6,4
0,5,4
2,9,5
2,6,1
2,6,6
2,3,6
2,4,6
2,6,6
5,7,6
8,7,10
6,8,10
8,12,9
9,9,8
8,11,5
10,10,7
10,8,8
10,10,7
9,10,5
7,9,4
5,10,5
3,8,6
7,6,4
7,4,5
7,1,6
7,1,3
9,3,0
12,4,0
14,6,-2
8,10,-4
3,11,-2
-1,14,-3
-7,16,-1
-16,18,1
-23,20,6
-27,21,8
-21,22,9
-14,28,4
-3,27,3
11,25,3
19,21,1
32,16,0
38,9,3
39,0,1
39,-9,4
39,-20,3
29,-21,7
26,-28,11
17,-31,13
10,-31,12
4,-30,10
-6,-26,7
-8,-19,9
-17,-10,9
-18,-2,7
-20,6,5
-23,9,4
-19,12,5
-17,21,0
-17,21,1
-14,27,-1
-13,26,-2
-11,24,0
-8,21,0
-4,15,1
0,14,1
0,11,0
0,10,3
-2,6,1
-1,3,6
-1,5,9
-2,3,10
-6,4,10
-6,7,12
-2,8,14
-2,11,13
4,15,13
12,17,13
21,17,6
28,22,4
33,21,4
39,26,2
42,26,0
44,30,-3
44,35,-3
43,38,-3
37,40,-1
31,42,0
26,42,1
18,41,0
10,40,-1
6,44,4
0,43,1
-7,40,-1
-12,33,1
-18,35,1
-19,25,6
-21,21,-1
-21,21,-1
-23,19,-3
-23,14,-4
-23,16,-2
-22,10,-4
-20,6,-3
-17,6,-7
-17,6,-8
-17,7,-7
-16,6,-8
-16,7,-5
-14,10,-10
-16,9,-11
-15,11,-13
-15,9,-14
-11,12,-14
-15,12,-16
-14,8,-16
-18,10,-15
-18,10,-16
-16,8,-13
-18,14,-12
-18,12,-11
-17,10,-6
-20,15,-6
-17,17,-5
-16,23,0
-13,24,0
-11,29,0
-5,31,2
-4,36,4
-2,38,4
-2,37,3
1,37,1
3,32,1
4,39,0
6,35,0
10,31,-2
9,34,-1
9,33,-5
10,36,0
11,40,1
12,38,0
15,40,0
18,46,2
20,50,0
22,51,0
22,55,-2
24,55,-2
21,59,1
17,62,2
16,63,1
16,58,1
27,51,-4
34,49,-9
40,42,-15
43,39,-17
42,36,-17
38,29,-20
35,23,-16
26,16,-16
18,14,-11
10,13,-13
0,9,-11
-9,4,-8
-18,11,-2
-27,13,-2
-34,15,1
-43,21,2
-50,25,-1
-56,27,1
-63,32,0
-62,36,1
-67,38,-5
-67,33,-6
-66,38,-12
-67,36,-11
-63,39,-16
-64,34,-20
-63,31,-19
-56,26,-23
-55,22,-26
-50,21,-27
-50,19,-27
-49,18,-26
-48,18,-17
-48,27,-19
-45,26,-20
-42,34,-14
-40,43,-10
-34,51,-9
-29,63,-7
-22,75,-9
-12,83,-10
-4,93,-13
3,103,-21
10,102,-22
14,98,-29
19,94,-29
17,88,-35
16,78,-40
16,68,-40
15,61,-43
14,50,-44
13,38,-41
8,30,-40
9,24,-39
5,19,-37
5,14,-32
4,13,-30
8,17,-25
15,20,-25
15,24,-23
12,24,-16
12,22,-13
6,25,-10
4,19,-9
-3,11,-9
-4,7,-7
-8,1,-4
-12,-8,-6
-17,-15,-6
-15,-23,-5
-14,-30,-7
-15,-35,-10
-12,-38,-7
-9,-43,-7
-7,-43,-7
-2,-43,-2
0,-40,-4
8,-29,0
16,-20,0
17,-15,1
20,-10,6
24,-9,6
22,-10,11
18,-7,5
22,-12,5
21,-15,6
20,-21,8
23,-22,10
25,-29,9
27,-30,9
27,-33,12
28,-34,10
30,-35,9
31,-35,9
28,-33,7
27,-28,11
27,-21,7
26,-12,6
24,-7,9
18,-4,10
7,0,11
2,4,11
-1,13,18
-10,19,21
-17,22,25
-26,26,25
-25,27,20
-20,24,21
-9,17,16
4,13,12
11,10,6
20,3,6
25,0,2
30,-10,4
27,-21,2
27,-32,5
21,-41,6
15,-45,9
10,-54,11
7,-59,16
6,-64,14
1,-66,17
-2,-70,17
-6,-68,15
-13,-66,16
-14,-65,13
-18,-54,10
-18,-48,9
-18,-39,5
-17,-26,-1
-13,-19,-1
-12,-9,-2
-10,-2,-3
-8,1,-7
-5,3,-8
-1,2,-9
1,0,-7
5,-6,-7
3,-10,-5
6,-19,-2
8,-23,-2
8,-29,-2
10,-33,2
15,-34,3
13,-36,2
21,-42,7
20,-43,5
26,-42,8
32,-41,5
35,-37,6
39,-33,4
41,-34,1
42,-36,5
42,-34,7
42,-32,4
38,-36,1
35,-36,3
33,-39,6
31,-45,5
29,-48,9
28,-51,9
25,-56,12
24,-60,14
18,-63,15
18,-66,15
18,-68,17
18,-75,13
14,-79,11
15,-83,10
15,-86,12
17,-90,8
18,-90,9
19,-91,6
18,-93,4
21,-89,5
19,-85,3
20,-73,7
19,-58,1
20,-32,4
19,-11,0
17,3,2
18,17,0
15,17,2
14,21,1
16,25,2
16,25,2
16,25,1
17,22,3
14,16,4
11,10,1
10,4,1
9,-1,0
10,-8,0
9,-17,2
8,-19,-1
7,-23,0
8,-22,-1
4,-22,-4
1,-22,-3
0,-20,-7
0,-24,-4
-2,-23,-9
-2,-22,-10
-6,-22,-11
-9,-21,-11
-11,-18,-11
-12,-16,-14
-17,-16,-14
-19,-13,-11
-20,-8,-11
-18,-8,-16
-12,-8,-22
1,-9,-30
13,-9,-33
25,-10,-41
37,-11,-49
47,-11,-55
53,-14,-59
64,-20,-63
64,-26,-68
67,-31,-69
65,-35,-73
63,-37,-77
63,-42,-78
57,-43,-78
49,-43,-80
43,-46,-76
34,-44,-76
28,-47,-70
21,-45,-68
6,-43,-60
1,-41,-52
-6,-36,-50
-15,-33,-42
-21,-32,-35
-25,-24,-29
-32,-21,-23
-37,-17,-19
-39,-13,-15
-38,-9,-9
-38,-6,-7
-36,-3,-4
-34,1,-1
-33,2,2
-29,3,4
-24,1,7
-17,0,3
-17,0,4
-15,0,3
-13,-1,6
-9,0,4
-5,-1,4
-2,4,4
3,0,2
10,0,3
12,2,0
17,2,-1
21,0,0
23,0,1
28,0,1
27,-2,6
31,-1,4
32,-1,7
32,-2,6
30,-2,6
26,-4,7
28,-4,8
22,-6,6
24,-3,8
22,0,7
17,-2,6
13,-4,7
14,-4,8
11,-2,6
10,0,9
8,3,8
5,3,6
4,4,6
1,6,6
0,3,5
0,5,9
2,4,7
1,4,7
1,5,6
0,2,7
1,4,9
1,2,6
0,3,7
2,2,8
4,0,9
3,-3,7
3,-1,7
4,-1,7
4,-6,7
6,-6,5
8,-5,5
5,-6,7
8,-6,6
9,-5,8
11,-5,9
12,-3,7
17,-3,8
16,-1,9
16,-1,8
13,1,10
15,2,12
15,4,11
10,10,13
5,13,15
-2,19,15
-5,19,19
-5,20,24
-4,22,21
-2,25,22
4,23,23
9,24,22
20,15,21
27,14,21
34,10,16
39,2,13
44,-2,12
43,-6,9
45,-10,5
43,-13,4
37,-11,3
33,-11,4
30,-12,4
25,-10,5
19,-8,9
11,-8,7
6,-6,9
3,-4,7
-6,-2,9
-7,-5,9
-9,-3,8
-11,0,7
-13,0,6
-16,2,8
-17,4,4
-13,1,3
-16,7,4
-18,6,2
-18,9,3
-21,8,2
-18,8,6
-19,8,4
-17,8,7
-16,8,6
-17,9,6
-14,7,9
-16,8,9
-13,11,6
-8,13,2
-4,12,5
0,14,5
3,13,6
9,14,6
15,6,7
18,9,5
24,7,0
24,3,1
26,0,-1
26,-3,0
24,-4,2
25,-5,-2
24,-10,-1
17,-8,0
14,-6,-2
10,-6,-3
4,-5,1
3,-7,0
0,-2,1
-3,-3,2
-7,-3,3
-8,-1,0
-12,6,3
-14,8,2
-15,7,5
-14,8,6
-13,3,7
-16,7,5
-15,6,6
-14,9,7
-12,8,7
-13,6,6
-8,7,4
-7,5,4
-9,7,5
-5,5,1
-2,1,3
0,2,4
1,0,1
2,0,2
5,1,2
7,0,4
8,0,2
7,1,1
8,-1,3
9,0,3
8,3,2
12,4,4
11,5,6
13,3,4
15,2,7
17,5,4
19,3,5
18,6,4
19,11,5
15,9,9
7,12,7
5,12,12
0,11,11
-6,15,12
-11,16,12
-11,21,12
-12,25,11
-9,28,12
-1,28,11
2,27,13
11,23,12
17,21,9
27,13,11
30,9,7
36,2,3
37,-4,1
35,-4,-2
31,-8,-2
29,-7,-3
24,-7,-2
18,-7,0
10,0,1
5,3,3
-6,6,6
-9,11,6
-12,13,6
-19,16,5
-25,16,6
-25,19,7
-23,19,6
-25,17,1
-27,15,2
-25,14,-2
-25,14,-3
-22,9,-3
-22,5,-2
-23,5,-4
-24,4,-7
-23,2,-6
-26,5,-6
-29,4,-3
-29,5,-3
-29,4,-1
-31,3,-3
-26,3,-4
-26,2,-3
-21,2,-3
-19,2,-5
-15,1,-2
-10,0,-4
-6,-3,-4
-1,-1,-5
1,-1,-3
8,-4,-7
14,-6,-5
14,-9,-10
17,-10,-6
17,-9,-8
20,-12,-8
17,-13,-7
17,-14,-5
13,-16,-6
8,-14,-4
6,-14,-3
2,-13,0
-1,-15,0
-2,-13,2
-5,-13,1
-7,-8,1
-9,-9,0
-10,-7,1
-5,-7,0
-3,-4,2
-3,-5,1
0,-4,2
1,-4,0
4,-3,-1
4,-5,1
7,-5,0
8,-5,1
10,-4,-1
11,-7,0
8,-7,1
8,-9,1
8,-9,3
9,-6,2
8,-8,1
9,-7,1
5,-7,1
6,-10,1
7,-9,1
6,-6,3
5,-10,3
4,-9,4
2,-7,1
3,-6,3
3,-2,5
2,-3,2
4,-3,6
4,-3,5
5,-3,6
5,0,6
5,-4,5
6,-3,7
6,-4,6
6,-5,5
8,-2,5
6,-4,3
8,-6,1
8,-5,6
10,-5,4
14,-4,5
15,-6,4
18,-5,-3
24,-4,-1
16,-2,1
11,0,0
5,1,0
-2,3,0
-6,4,2
-13,4,8
-19,10,7
-20,15,9
-17,21,8
-10,25,5
0,26,3
13,26,2
22,22,-1
35,14,-1
42,5,-2
45,-3,0
43,-13,0
43,-21,2
41,-33,0
33,-37,3
27,-40,7
19,-39,7
8,-37,12
4,-33,11
-2,-25,13
-9,-23,12
-16,-19,12
-16,-8,9
-17,-3,11
-17,3,6
-16,5,6
-16,10,1
-13,15,1
-8,17,0
-8,17,-1
-4,14,-3
1,14,-1
0,9,-1
2,9,0
0,7,1
2,1,2
0,-1,5
-1,-3,7
-2,-3,9
-6,-5,8
-2,-5,9
-2,-4,12
4,-6,11
8,-5,11
15,-4,8
23,-2,8
29,-4,7
31,-4,5
34,-4,3
38,-6,4
39,-4,0
36,-8,-1
37,-7,4
36,-8,1
34,-7,0
28,-7,0
25,-5,1
20,-5,3
18,-5,2
11,-1,2
12,-1,5
8,0,2
8,-1,5
5,2,8
4,0,5
3,-1,4
1,-3,4
2,-3,4
0,-5,2
1,-4,1
0,-2,0
1,-5,-1
2,-4,-2
0,-4,1
1,-5,-1
-1,-4,0
0,-1,-3
0,0,-3
1,0,-2
0,0,-1
0,-2,-4
2,1,0
3,1,0
6,1,0
5,3,0
6,1,2
7,3,5
5,4,4
4,4,3
4,5,5
2,6,4
2,8,6
3,6,6
2,7,6
4,7,7
6,6,7
0,10,4
5,7,7
5,11,6
9,7,9
6,9,8
10,9,7
10,6,11
11,4,11
10,3,9
10,0,8
10,-2,10
10,-3,8
11,-1,7
12,-4,7
15,-4,6
16,-3,4
18,0,3
20,-1,4
21,-2,-2
28,0,-3
23,4,-6
18,5,-9
14,9,-5
10,9,-2
3,9,0
-6,13,6
-17,15,8
-20,23,10
-16,26,9
-5,29,7
4,32,1
15,32,-2
25,23,-2
36,16,-1
36,10,-3
39,-3,0
39,-13,1
35,-23,5
29,-27,5
18,-31,7
11,-30,8
5,-28,13
2,-24,12
-5,-14,13
-8,-8,13
-12,2,15
-11,4,14
-13,14,11
-14,24,8
-16,25,6
-14,28,5
-7,28,6
-5,26,3
0,21,1
4,19,0
12,14,1
12,16,2
13,9,6
14,4,3
12,0,4
12,-5,9
10,-4,13
5,-7,9
3,-8,11
3,-4,13
1,-1,12
3,0,11
9,3,11
16,8,11
19,9,7
23,11,8
30,12,7
30,10,5
35,8,5
38,8,3
37,5,4
35,2,5
33,2,4
29,0,7
30,-1,7
25,1,7
23,1,6
21,0,10
20,-1,8
19,1,10
15,6,9
15,2,7
13,5,6
11,0,10
11,0,7
10,-2,3
11,-3,7
10,-7,4
10,-10,1
9,-9,3
8,-7,5
6,-12,5
5,-14,2
3,-17,0
4,-20,1
3,-22,3
0,-22,-3
0,-19,0
-2,-21,-2
1,-21,-2
-1,-16,-3
-6,-12,-4
-6,-12,-2
-9,-11,-3
-13,-11,-2
-17,-9,0
-18,-9,0
-19,-9,1
-17,-12,1
-19,-20,2
-20,-26,3
-18,-32,2
-18,1,3
-26,-15,3
-17,-35,2
-21,-47,1
-19,-55,2
-29,-42,0
-31,-26,7
-39,0,10
-40,29,13
-43,57,13
-45,83,15
-52,110,14
-59,129,14
-65,151,20
-76,162,23
-85,170,25
-98,173,28
-114,165,35
-130,156,35
-140,142,35
-147,124,31
-146,108,25
-141,85,17
-128,63,10
-118,41,3
-107,24,-2
-90,4,-9
-81,-15,-13
-68,-28,-17
-60,-39,-19
-52,-54,-19
-49,-57,-21
-44,-63,-17
-36,-66,-14
-39,-66,-9
-33,-67,-6
-29,-66,-5
-26,-63,-4
-22,-61,-6
-20,-59,-6
-17,-53,-8
-15,-50,-10
-11,-42,-12
-4,-42,-16
0,-38,-18
9,-33,-22
10,-29,-22
18,-26,-24
25,-25,-25
31,-24,-26
37,-27,-25
43,-25,-20
44,-24,-21
46,-21,-15
47,-11,-8
46,-6,-1
48,-4,0
50,-2,2
48,-1,6
50,-1,6
51,2,9
53,3,10
58,4,8
59,4,10
63,3,12
62,3,8
60,7,9
58,7,8
57,3,6
53,4,5
51,3,2
48,2,0
45,0,0
37,-1,-2
34,-2,-1
30,-6,-2
21,-3,-2
19,0,-1
12,0,-2
12,2,-3
8,8,-1
5,9,-3
2,13,0
-2,15,-1
-4,21,-2
-9,25,-3
-10,26,-1
-13,27,2
-12,26,-1
-11,29,0
-13,28,-3
-12,27,-5
-14,24,-5
-17,27,-4
-17,25,-7
-16,22,-6
-16,25,-8
-14,20,-7
-15,22,-8
-15,21,-8
-12,18,-6
-14,17,-8
-10,19,-6
-9,14,-7
-6,12,-5
-4,15,-4
-1,15,-5
0,15,-4
4,22,-4
8,26,-4
9,28,-1
14,31,-1
14,35,-2
14,42,0
13,41,0
13,45,-2
16,45,-3
17,47,-3
16,52,-4
15,57,-4
14,64,-2
8,66,-1
10,67,-2
4,66,-2
-2,69,-3
-10,79,0
-14,82,4
-19,94,7
-17,100,2
-13,107,5
-9,107,8
2,106,7
11,108,6
14,103,8
19,99,3
22,94,2
23,91,2
27,89,0
27,86,0
27,91,-2
25,93,0
25,94,1
25,99,-3
25,106,-1
26,105,-2
22,112,-2
22,113,0
22,112,-4
21,109,-2
19,109,-6
18,100,-4
15,99,-2
12,95,-2
11,82,-2
7,80,-1
7,76,0
2,71,-1
2,65,0
0,58,0
6,58,0
6,53,2
7,57,0
12,57,1
11,61,-3
11,68,-1
12,69,-6
10,78,-8
10,83,-9
15,89,-9
13,96,-9
14,109,-10
20,112,-12
19,112,-12
23,106,-12
26,103,-13
26,106,-15
29,104,-15
28,101,-13
30,98,-17
33,96,-12
39,95,-9
38,95,-9
38,94,-9
37,100,-10
35,103,-9
32,109,-7
29,113,-5
25,119,-3
24,125,-5
20,127,-7
21,117,-5
18,111,-7
22,115,-4
25,108,-5
24,101,-5
24,98,-4
25,91,0
23,88,3
29,85,-2
32,85,0
33,94,4
35,101,4
40,95,2
40,93,6
41,93,6
46,96,8
47,90,10
49,82,10
53,80,8
53,74,8
55,66,8
54,62,12
56,60,11
57,50,17
55,45,17
58,41,18
57,39,19
59,41,22
59,40,24
56,37,25
56,39,24
54,39,24
52,33,23
52,30,27
47,27,25
54,15,25
54,10,26
58,6,25
61,0,23
62,-10,21
62,-17,23
61,-22,23
60,-26,21
55,-27,22
52,-29,26
45,-25,32
38,-23,31
41,-20,32
44,-17,32
52,-19,27
58,-19,26
66,-25,25
74,-34,22
77,-43,20
82,-50,16
82,-64,15
79,-76,15
78,-85,17
76,-91,19
73,-94,22
70,-98,25
64,-97,27
61,-93,25
58,-88,28
51,-79,29
44,-73,25
41,-69,26
31,-62,18
22,-61,20
17,-59,16
8,-61,6
1,-56,7
-5,-63,4
-11,-66,0
-14,-72,0
-18,-81,-2
-22,-80,-1
-23,-80,0
-26,-74,-1
-27,-72,3
-26,-70,2
-25,-64,6
-27,-63,13
-28,-63,15
-28,-65,14
-23,-69,15
-22,-74,16
-16,-83,17
-12,-89,17
-9,-95,19
-3,-104,19
1,-113,22
1,-121,21
4,-125,24
9,-135,26
11,-139,27
12,-141,31
13,-146,31
14,-146,33
14,-151,35
13,-149,32
10,-146,29
7,-144,33
9,-142,27
8,-143,28
10,-140,23
6,-139,17
6,-137,17
7,-135,15
6,-129,9
5,-124,8
4,-121,2
3,-118,1
4,-117,-5
1,-112,-5
1,-108,-6
1,-104,-10
-1,-101,-13
0,-97,-12
0,-92,-15
-3,-86,-17
-4,-83,-16
-4,-75,-15
-6,-71,-17
-9,-62,-18
-12,-57,-19
-13,-48,-16
-13,-45,-13
-12,-39,-11
-12,-33,-8
-10,-30,-5
-13,-25,-4
-9,-22,-2
-9,-17,-3
-6,-12,0
-4,-9,-2
-6,-12,2
-6,-12,4
-5,-18,5
-4,-24,2
0,-32,4
0,-34,4
-2,-44,5
1,-51,4
4,-63,8
3,-72,5
8,-77,4
7,-79,7
7,-83,7
9,-85,9
5,-85,7
4,-81,11
3,-82,12
-4,-80,18
-7,-76,18
-12,-67,17
-11,-69,17
-7,-63,18
0,-62,15
5,-57,9
14,-53,4
26,-53,4
34,-51,-2
37,-48,-4
38,-44,-2
37,-43,-5
35,-38,-2
32,-38,0
23,-33,2
15,-28,1
9,-24,5
6,-14,8
0,-5,7
-3,4,8
-7,12,11
-10,14,11
-12,23,13
-16,23,11
-17,22,12
-16,23,8
-17,24,8
-14,23,6
-13,22,1
-12,20,0
-8,16,0
-8,15,-5
-14,14,-3
-15,16,-5
-16,13,-1
-20,11,-2
-22,11,1
-22,14,1
-23,10,5
-25,11,3
-23,13,0
-27,10,2
-23,9,1
-18,11,-1
-15,12,-1
-5,7,-3
-4,8,-5
-3,7,-6
-1,4,-9
1,8,-8
0,7,-10
-1,10,-12
-3,7,-10
-4,13,-5
-8,15,-8
-14,18,-7
-18,20,-7
-25,22,-5
-29,26,-5
-36,29,-5
-42,29,-3
-43,33,-5
-49,32,-4
-50,33,-5
-53,32,-4
-54,32,-6
-51,30,-2
-52,29,-2
-49,25,-3
-49,24,-5
-46,21,-4
-42,18,-5
-39,13,-7
-39,6,-5
-39,3,-8
-34,-1,-8
-30,-3,-5
-29,-7,-6
-29,-9,-6
-24,-15,-11
-19,-16,-8
-18,-17,-5
-15,-18,-9
-13,-22,-9
-10,-22,-7
-8,-19,-8
-5,-20,-8
-5,-21,-8
-4,-17,-3
0,-18,-2
1,-16,-3
3,-15,-3
4,-14,-4
9,-18,-1
10,-12,-1
12,-13,-1
13,-9,-1
10,-10,-1
4,-7,2
-2,-4,2
0,-2,0
-8,1,4
-14,6,7
-15,9,6
-14,15,8
-11,19,6
-6,23,7
2,24,2
13,24,1
17,25,1
30,19,0
36,16,-5
36,11,-1
34,8,-6
36,2,-4
34,0,-6
26,-4,-4
23,-7,-4
15,-9,-4
10,-6,0
4,-5,0
-4,-4,1
-11,-3,1
-14,-1,1
-16,-2,0
-20,-2,1
-24,-4,0
-22,0,-3
-23,-2,-4
-21,-1,-1
-18,-1,-6
-20,0,-10
-16,1,-8
-13,2,-14
-16,2,-9
-12,-2,-9
-16,0,-11
-17,1,-7
-18,4,-5
-17,2,-2
-19,2,-4
-21,2,0
-22,2,-2
-20,5,-2
-17,3,-1
-11,3,0
-8,2,-1
0,3,-3
2,2,-4
8,0,-6
13,0,-6
19,-2,-3
20,-7,-7
25,-9,-5
24,-7,-3
27,-9,-7
28,-8,-3
30,-10,-3
28,-9,-2
25,-11,-2
24,-13,0
19,-9,0
17,-7,1
17,-8,4
11,-2,1
11,-3,2
11,-5,3
10,-2,1
9,-3,2
6,1,2
7,-2,3
7,0,0
6,-4,2
7,-1,1
5,-3,0
5,-2,0
5,-2,3
5,0,-1
6,-1,0
8,-1,0
8,-1,1
5,-4,3
8,-2,3
6,-5,1
5,-4,0
4,-5,0
5,-10,0
1,-5,0
2,-7,0
3,-5,1
0,-8,0
0,-8,0
0,-8,0
3,-10,0
5,-6,0
9,-8,-2
12,-7,-6
13,-6,-4
5,-3,-3
1,-6,-3
-3,-1,-1
-7,4,-4
-13,4,-1
-21,8,-1
-24,16,4
-28,19,5
-19,20,4
-13,27,4
-1,23,3
7,21,0
16,16,0
28,7,0
33,-1,-3
33,-11,-2
37,-21,1
34,-26,-1
29,-33,2
22,-41,1
18,-41,3
11,-40,7
7,-34,3
-3,-31,7
-8,-28,10
-13,-20,7
-18,-10,6
-19,-6,4
-22,0,0
-21,5,1
-22,8,0
-19,13,-1
-18,17,-2
-13,17,-2
-13,17,-2
-8,13,-6
-7,13,-2
-3,11,0
-4,5,-1
-5,3,0
-3,-3,2
-6,-2,3
-3,-5,6
-5,-6,9
-6,-7,6
-3,-4,10
-3,-5,11
3,-4,5
8,0,5
13,-2,5
18,1,6
26,1,3
29,4,0
28,0,1
31,1,1
32,0,0
31,1,0
30,3,0
28,2,-1
25,-3,0
22,4,3
19,2,3
15,6,2
11,5,3
10,4,3
6,5,5
5,4,6
5,6,5
7,5,5
6,2,4
8,1,5
8,5,4
11,1,3
10,-1,1
13,-1,2
11,0,1
12,-6,3
14,-1,1
16,-4,-1
14,-6,1
13,0,0
18,-4,0
17,-3,1
20,-2,2
20,0,2
21,-1,5
21,2,3
20,0,3
23,-1,9
19,4,5
20,1,8
19,4,8
17,2,9
17,4,10
17,3,10
17,5,8
18,8,11
18,6,10
19,7,11
20,10,11
22,7,10
29,6,6
28,14,5
27,15,7
22,15,-1
19,17,5
17,16,5
11,19,8
5,21,11
-4,23,17
-5,23,17
0,28,13
6,26,18
15,28,12
26,23,9
31,17,8
37,13,8
42,5,6
47,-5,7
44,-15,6
39,-25,7
36,-26,8
25,-33,7
19,-34,9
17,-30,12
9,-26,8
1,-22,9
-2,-14,6
-7,-7,10
-10,0,8
-12,7,4
-14,11,3
-11,19,4
-11,20,2
-12,24,0
-10,24,0
-9,23,1
-8,22,-2
-3,18,2
-2,13,-3
1,8,1
2,3,3
2,-2,4
1,-5,4
1,-10,5
0,-10,5
0,-9,8
0,-10,10
0,-10,10
1,-3,12
6,1,7
10,4,7
18,11,9
21,14,8
25,19,8
27,22,7
26,21,4
31,23,10
29,24,9
28,20,12
25,21,12
27,21,13
24,20,11
23,18,15
22,19,16
22,19,16
22,17,24
25,15,23
28,14,27
28,12,29
33,13,33
36,13,35
38,10,37
43,7,35
48,4,29
53,3,27
53,2,23
58,-1,21
56,-4,18
54,-1,13
53,-5,10
46,-7,9
42,-7,4
35,-5,2
28,-9,0
19,-9,0
12,-7,0
5,-4,-5
-3,-3,-4
-8,-2,-4
-16,0,-3
-23,2,-3
-27,0,-1
-33,3,-3
-36,6,-3
-38,4,-7
-42,6,-8
-43,7,-9
-41,6,-10
-41,5,-13
-41,3,-16
-38,1,-16
-37,-1,-15
-35,-1,-15
-31,-4,-18
-29,-4,-19
-23,-5,-19
-24,-4,-21
-28,-4,-23
-28,-2,-22
-28,2,-16
-30,4,-17
-36,8,-13
-43,16,-12
-42,20,-11
-39,24,-6
-31,27,-11
-20,26,-8
-11,26,-7
-2,27,-8
11,23,-9
19,15,-11
23,7,-10
30,0,-10
32,-6,-9
31,-8,-6
30,-13,-8
27,-14,-6
25,-18,-3
23,-16,-3
21,-12,-3
17,-11,2
13,-9,5
8,-6,8
6,-2,8
4,0,8
4,2,9
3,7,6
2,7,7
1,10,6
2,11,5
1,13,4
2,17,4
4,14,4
6,14,4
1,12,1
5,17,2
2,12,0
2,13,3
0,15,1
0,14,6
-3,18,4
-3,19,8
-7,23,8
-5,30,6
-2,34,9
0,42,12
3,50,13
7,55,12
10,63,11
12,68,14
15,68,14
19,69,11
19,66,11
19,62,11
19,55,10
22,49,6
20,44,2
19,34,4
20,26,1
16,19,-2
15,10,-3
11,6,0
11,-1,-2
7,-4,-4
8,-5,-2
6,-6,-1
8,-6,-2
5,-7,0
10,-6,0
5,-3,0
6,1,0
4,4,0
4,3,2
1,3,4
0,4,-2
2,6,0
0,6,-1
-3,4,1
-1,1,1
-4,2,-5
-2,1,-2
-1,3,-4
-4,2,-3
-2,1,-2
-2,-4,-2
-2,-2,-3
-2,-2,-5
-3,-3,-4
-2,-2,-4
0,-1,-4
2,-2,-2
0,1,-3
1,2,-4
1,3,-3
0,4,-5
1,5,-1
-3,5,-2
1,7,-4
1,4,-1
2,2,0
5,6,-2
6,10,-3
0,8,-1
-3,8,-1
-5,8,-1
-10,11,0
-13,15,1
-14,17,0
-18,21,3
-19,24,5
-14,27,3
-7,31,0
2,34,1
14,35,-4
22,29,-3
29,26,-6
36,20,-7
42,16,-7
43,6,-8
39,0,-6
34,-3,-8
32,-6,-4
29,-8,-1
22,-8,0
14,-9,-1
9,-6,5
2,-6,5
0,-3,10
-5,-2,10
-6,-2,10
-9,-3,10
-14,-1,8
-13,-2,8
-14,0,4
-14,0,1
-15,2,0
-16,2,-3
-14,2,-3
-15,1,-5
-15,2,-6
-14,4,-9
-13,2,-5
-14,2,-6
-14,4,-3
-14,3,-3
-14,3,-1
-16,6,-2
-13,5,-3
-13,4,0
-11,5,0
-7,5,-2
-5,5,-1
-1,4,-4
4,3,-1
9,3,-5
12,1,-5
15,-1,-8
16,-5,-8
22,-5,-8
22,-5,-9
23,-7,-8
24,-7,-8
22,-7,-10
22,-6,-11
18,-6,-7
19,-5,-10
10,-5,-6
10,-5,-6
5,-3,-3
4,2,-2
0,3,-2
0,0,-5
-3,0,0
-5,2,-3
-7,0,-1
-6,3,-5
-8,0,-4
-7,0,-3
-7,-2,-5
-8,-3,-3
-7,-2,-3
-6,-7,-1
-8,-5,-2
-8,-7,-3
-4,-6,-4
-3,-7,0
-1,-8,-4
1,-9,0
1,-10,0
2,-6,-2
1,-9,-4
3,-6,-1
2,-7,-1
3,-7,1
0,-8,-1
0,-10,0
1,-8,0
-2,-6,2
-1,-8,2
-2,-6,1
-1,-4,0
1,-4,4
0,-4,3
-1,-5,2
2,-2,1
1,0,0
4,-2,1
4,-2,3
5,-7,6
3,-8,5
4,-8,5
6,-4,3
4,-9,1
3,-5,1
4,-9,1
5,-7,2
10,-8,2
15,-10,2
14,-9,1
17,-6,-1
15,-2,-1
7,-5,0
0,-5,2
-4,-1,1
-10,0,2
-15,6,4
-22,6,6
-24,13,6
-21,17,3
-14,21,6
-6,26,3
8,22,1
17,23,-1
25,13,-2
33,4,-1
36,-4,-1
35,-12,0
37,-24,1
32,-28,1
28,-37,5
22,-38,7
14,-38,11
10,-37,10
2,-33,13
-2,-31,15
-9,-25,12
-10,-19,14
-17,-14,11
-18,-7,11
-18,-2,8
-17,0,7
-16,5,1
-15,9,-1
-12,11,-2
-13,12,-7
-8,11,-3
-10,11,-3
-10,8,-3
-5,6,-6
-8,4,-3
-12,0,0
-9,-2,4
-12,-3,5
-14,-2,7
-12,-4,8
-13,-6,10
-14,-9,13
-8,-5,11
-1,-6,10
5,-7,8
15,-10,8
21,-5,5
28,-5,3
33,-5,3
35,-5,2
38,-4,2
39,-6,0
39,-8,1
36,-5,2
36,-6,2
31,-5,-2
27,-5,2
20,-1,4
17,-4,3
14,-5,9
7,0,3
7,2,4
4,-1,6
0,2,5
1,0,6
0,-1,7
0,-2,3
-4,0,2
-1,-1,3
-2,-5,2
-2,-3,1
-4,-4,1
-3,-4,1
-2,-7,-2
-3,-5,-3
-2,-8,-5
-2,-7,-3
0,-8,-3
-4,-5,-5
-2,-8,-6
-1,-5,-3
-2,-4,-4
0,-5,-3
-1,-1,-4
-1,-4,-3
-3,0,-1
-3,-1,-2
-3,0,-1
-5,1,-1
-8,2,-2
-7,1,2
-5,2,-1
-5,5,2
-7,3,5
-5,7,7
-3,4,4
-5,3,6
-1,4,6
-1,1,6
3,3,4
4,3,6
3,2,6
6,1,7
9,0,5
7,1,5
9,1,5
10,0,7
12,1,8
10,1,6
13,-4,5
13,-3,6
13,-3,1
14,-2,6
15,-2,3
14,-2,6
18,-2,4
20,0,0
19,2,-4
12,4,-3
8,5,-6
5,8,-5
-3,12,-6
-11,15,1
-22,19,5
-23,23,4
-18,27,1
-11,27,4
1,25,-1
12,25,-4
23,21,-2
28,12,-4
33,1,-1
36,-4,-2
38,-14,0
34,-25,2
27,-30,7
24,-32,11
15,-34,10
5,-32,10
2,-25,9
-7,-21,13
-10,-13,14
-13,-7,12
-16,0,11
-17,10,6
-17,16,5
-16,20,1
-15,24,-1
-13,22,-1
-10,24,-2
-5,20,-2
-2,17,-3
1,13,-3
3,6,-1
6,3,-2
9,-2,0
8,-6,2
4,-8,2
3,-10,5
2,-10,9
0,-10,10
-4,-6,8
-3,-2,13
-5,-1,11
-3,3,8
4,4,11
11,7,8
14,8,8
20,12,8
24,10,4
26,8,1
28,8,1
28,5,1
31,1,3
29,0,-1
29,0,0
24,-3,3
21,-1,2
18,-2,5
16,-2,3
11,-6,4
8,-2,6
2,2,4
1,2,5
0,4,5
-4,5,5
-6,5,5
-6,6,4
-9,5,4
-9,3,0
-11,2,-4
-13,2,0
-14,0,-1
-15,0,-3
-15,0,-3
-14,-3,-1
-14,-5,-5
-14,-1,-2
-12,0,-1
-11,-1,-3
-13,-1,-2
-7,-3,0
-9,-2,-2
-7,0,-1
-9,-1,0
-6,0,2
-4,2,4
-4,2,-1
-3,5,1
-5,5,-1
-4,3,2
-2,0,2
-3,1,3
-2,0,0
0,-2,2
0,0,1
0,-1,3
2,0,3
2,0,2
0,0,0
1,1,-1
2,0,0
0,-1,-3
0,-1,1
2,0,-2
1,-2,-3
6,-1,-7
8,1,-8
2,4,-12
-2,3,-8
-7,7,-11
-15,10,-13
-20,10,-9
-32,17,-3
-38,18,1
-44,19,0
-37,24,2
-29,23,0
-19,26,1
-8,24,-4
0,18,-8
5,14,-7
12,8,-7
18,0,-9
15,-8,-9
14,-11,-3
11,-17,-2
5,-20,-4
-1,-19,-1
-3,-19,-2
-8,-18,-2
-12,-16,-2
-14,-11,2
-16,-7,0
-20,-5,1
-19,-1,2
-20,-1,1
-21,1,1
-19,2,-4
-17,4,-4
-18,6,-1
-9,6,-2
-7,3,-1
-6,5,-4
0,4,-5
1,2,-5
0,3,-6
1,2,-5
1,0,-6
-2,-1,-3
-3,0,-3
-7,4,-3
-14,-2,-2
-15,1,1
-16,2,0
-19,6,0
-18,6,0
-17,10,-4
-10,13,-2
-5,13,-7
-1,14,-9
6,15,-6
9,14,-8
14,10,-10
18,5,-10
18,4,-12
26,2,-8
25,2,-9
25,0,-9
24,0,-8
25,-2,-8
21,-3,-5
20,-3,-4
17,0,-4
11,2,-5
10,2,-3
6,3,-4
3,6,-4
2,6,-2
-1,7,-4
-5,8,-5
-3,10,-4
-3,10,-3
-7,10,-4
-4,7,0
-5,8,-4
-5,5,-4
-4,7,-2
-3,3,-2
-4,5,-3
-2,5,-1
-4,0,-2
-3,4,0
-1,1,-6
-1,2,0
-2,5,-2
-1,4,2
-4,5,0
0,7,0
1,4,1
0,5,2
0,5,0
-1,6,-1
0,4,-2
5,4,1
2,9,-1
5,2,-4
4,5,-1
4,0,-1
4,4,-2
4,4,-3
5,3,-1
7,0,-3
10,3,-3
11,4,-6
8,7,-4
3,10,-2
-2,11,-2
-6,14,0
-11,13,0
-18,16,-1
-22,18,4
-20,23,3
-18,27,3
-13,26,0
-5,31,-1
2,30,0
13,27,-3
19,21,-4
25,14,-8
29,7,-9
32,0,-9
34,-5,-10
32,-10,-9
23,-13,-8
22,-14,-5
14,-12,-7
7,-11,-3
3,-10,0
-1,-7,2
-11,-5,2
-14,-4,1
-19,-1,1
-20,-1,1
-23,1,1
-24,-2,3
-24,-1,-2
-21,-2,-2
-20,0,-6
-18,0,-9
-22,3,-8
-16,2,-9
-17,4,-8
-18,6,-10
-15,6,-8
-16,7,-9
-17,10,-7
-17,9,-6
-17,10,-3
-15,11,-1
-14,9,-3
-14,9,-3
-14,8,-1
-10,9,2
-8,10,-3
-5,10,-1
2,8,-3
5,7,-4
12,9,-6
15,6,-5
18,5,-3
20,4,-10
21,0,-5
24,-3,-4
25,-4,-4
26,-3,-5
24,-3,-2
21,-3,0
21,0,-2
17,0,0
14,4,0
10,4,3
7,4,1
6,4,2
4,6,-1
4,7,3
3,8,2
0,9,-1
1,4,-1
-1,4,1
1,5,0
-1,4,-1
0,4,-1
-1,2,0
0,1,-2
-1,1,1
0,1,1
0,2,0
-1,2,-1
1,2,0
0,4,-3
-2,4,0
-2,5,0
-1,4,-3
0,7,-3
0,5,1
0,2,-3
-1,5,1
0,4,0
-1,4,0
0,3,0
1,1,1
-1,1,2
0,1,2
1,0,0
3,-1,-1
4,-3,0
5,-6,2
4,-7,0
1,-8,0
4,-8,2
4,-5,2
10,-8,0
12,-7,0
16,-7,0
13,-7,0
6,-4,0
-1,-4,4
-5,-2,4
-14,0,6
-16,7,5
-22,6,5
-30,13,6
-23,16,4
-16,24,2
-11,27,-1
2,30,-3
12,28,-5
22,22,-4
32,15,-3
37,5,-7
43,-6,-2
42,-14,-1
38,-24,2
34,-27,2
31,-32,4
22,-33,9
11,-33,9
7,-28,13
0,-25,12
-5,-20,14
-9,-15,17
-14,-14,15
-17,-7,12
-19,-4,8
-19,0,5
-17,3,0
-17,4,-2
-16,6,-2
-12,7,-5
-14,7,-4
-10,7,-8
-13,4,-4
-12,7,-6
-11,2,-2
-10,2,0
-10,2,2
-13,2,3
-11,0,8
-7,-8,9
-11,-4,9
-9,-6,8
-5,-7,14
-5,-4,9
2,-6,10
7,-5,10
12,-2,6
17,-1,6
27,-2,2
31,-3,1
31,0,0
36,-5,0
35,-4,0
36,-8,0
34,-8,1
30,-7,2
28,-5,1
26,-2,2
22,-4,3
15,-3,5
13,-1,6
6,0,5
7,1,7
3,0,6
0,0,7
0,1,4
-5,1,2
-3,0,-2
-4,0,1
-3,-2,4
0,-5,1
-2,-3,0
-2,-2,0
0,-4,1
0,-4,-1
1,-5,0
3,-3,0
0,-5,0
2,-6,-1
4,-4,-2
2,-4,-1
4,0,-2
5,-4,0
4,-1,5
7,-2,1
4,-1,0
5,1,3
7,0,1
5,0,0
6,-1,2
6,3,0
5,0,2
4,0,3
2,0,2
5,1,8
7,-3,4
8,0,7
7,1,7
9,-2,6
8,0,7
8,0,5
11,-4,8
8,-3,6
14,-3,7
14,-4,5
11,-5,6
11,-5,5
13,-4,4
16,-6,4
18,-1,-1
17,0,0
13,3,0
8,4,0
0,8,-2
-2,10,-1
-11,11,-3
-21,14,3
-26,18,6
-25,20,3
-14,22,5
-4,24,4
8,24,1
16,20,0
24,12,0
33,4,4
38,-9,1
40,-18,2
39,-27,6
37,-33,6
31,-37,9
25,-38,10
17,-35,11
8,-28,11
3,-21,11
-2,-13,12
-13,-5,12
-19,2,8
-21,9,5
-22,15,5
-24,18,2
-22,21,0
-18,22,-2
-19,21,0
-16,17,-2
-15,15,-3
-8,13,-3
-6,6,-3
-1,-1,-1
1,-1,0
4,-8,2
1,-9,3
1,-11,5
0,-14,5
-1,-10,6
0,-11,8
-4,-8,11
-4,-4,8
-2,0,11
-2,2,8
2,8,7
7,10,4
14,13,5
19,12,2
23,6,3
25,9,1
28,7,3
31,2,3
32,1,3
32,0,2
30,-3,4
27,0,3
23,0,6
23,0,11
22,0,8
18,3,7
12,3,4
11,6,7
10,8,7
11,8,7
8,8,7
5,4,3
6,3,5
4,2,3
5,3,0
3,0,0
4,-1,-2
4,0,1
3,-2,0
4,-2,-1
1,-2,-3
3,-5,0
4,-2,0
2,-3,-2
0,-2,-6
1,-3,0
1,2,0
0,2,-1
-1,0,1
-2,1,0
-3,3,-2
-6,6,0
-6,5,0
-7,5,0
-5,7,2
-2,6,5
-3,7,2
0,5,5
2,6,5
0,1,6
1,6,5
1,6,4
2,1,5
7,3,6
5,2,6
9,2,7
10,0,9
12,0,4
13,-1,5
14,-2,4
15,-1,3
17,-1,4
22,1,2
18,1,0
11,6,0
8,9,-1
3,10,0
0,11,-2
-9,16,1
-14,16,5
-16,19,10
-11,22,7
-4,23,6
4,23,0
19,19,0
28,16,0
31,7,0
35,0,-2
38,-6,2
37,-14,1
34,-23,3
31,-27,4
23,-28,8
15,-30,8
10,-26,8
2,-23,13
-2,-13,11
-8,-7,7
-12,2,9
-17,8,8
-19,14,6
-23,19,4
-26,21,0
-23,21,0
-24,18,-1
-21,18,-2
-20,15,0
-17,14,-1
-14,9,-1
-9,2,-4
-5,-1,-3
-2,-5,-2
0,-9,-2
-1,-14,0
-2,-11,0
1,-13,0
1,-13,2
1,-11,5
-2,-10,6
-1,-5,8
0,0,8
4,2,8
5,2,4
15,6,2
18,10,1
19,11,-2
22,13,-3
24,10,-2
26,8,-2
24,6,-2
24,0,-1
22,0,0
23,0,0
19,0,1
17,-2,1
16,0,3
12,2,3
11,2,1
10,5,4
6,6,6
4,7,4
5,5,3
4,4,4
0,3,-1
-1,3,-2
0,1,-4
1,1,-5
0,0,-6
0,1,-4
-1,-2,-5
-3,-2,-5
-3,0,-5
-4,-1,-4
-6,-3,-3
-5,-3,-2
-6,-2,-5
-4,-2,0
-5,0,-1
-4,0,-1
-3,0,-1
-4,1,0
-5,5,-3
-4,3,1
-6,5,-3
-2,5,0
-1,4,2
-2,8,1
-1,7,0
-1,6,1
0,6,3
2,5,3
1,4,1
4,3,4
8,0,2
8,0,1
8,-1,1
11,1,3
10,0,2
11,0,1
12,-2,0
13,-5,0
16,-2,0
12,0,0
7,2,0
0,3,-1
-2,6,-1
-12,13,-1
-19,12,0
-25,15,5
-27,19,6
-20,21,7
-12,25,0
-1,26,0
11,22,-3
19,17,-2
27,10,-1
29,0,-4
38,-11,-1
36,-19,-2
33,-26,3
29,-35,3
23,-35,6
15,-35,4
10,-32,8
4,-29,4
-1,-22,8
-8,-13,6
-14,-6,7
-20,0,7
-26,5,5
-28,12,5
-29,13,2
-27,19,2
-29,16,1
-27,16,-1
-23,16,0
-20,11,-5
-16,9,-2
-12,4,-1
-7,3,-1
-2,-4,-3
2,-5,-1
6,-8,0
5,-9,-1
4,-10,0
5,-7,2
6,-7,1
4,-6,3
4,-2,5
3,0,2
3,2,7
6,6,5
11,7,1
15,12,0
21,10,0
20,10,-5
24,8,-2
25,8,-4
25,4,-3
27,1,-4
22,0,-2
21,-2,-2
21,-1,-2
17,-2,-2
17,-3,1
13,-3,-2
11,0,0
5,0,-1
2,1,-3
0,3,-2
-1,1,-2
-4,2,-2
-5,3,-4
-7,4,-2
-10,3,-7
-9,4,-4
-10,4,-9
-9,0,-5
-9,1,-8
-11,2,-9
-10,0,-7
-13,0,-7
-11,1,-7
-12,1,-6
-13,1,-7
-9,0,-4
-8,0,-2
-4,3,-4
-3,1,-3
-1,0,-4
-3,3,-4
0,2,-4
3,3,-3
1,4,-7
3,6,-2
5,6,-3
7,3,0
7,7,0
12,5,-1
12,4,1
10,2,0
10,2,2
10,1,2
8,0,1
7,2,0
7,1,0
10,1,-1
9,0,0
11,4,0
9,-1,-4
7,-4,-4
11,-2,-5
9,-1,-6
10,2,-8
4,4,-4
-3,3,-3
-10,8,-3
-16,9,-2
-23,10,-2
-29,17,3
-33,22,0
-29,23,5
-25,28,1
-13,31,0
-4,34,-6
6,29,-3
18,21,-5
25,12,-10
31,5,-9
36,-3,-8
34,-11,-11
32,-18,-9
30,-20,-10
25,-23,-8
18,-23,-3
9,-17,-6
2,-17,-1
-4,-15,-4
-10,-10,-2
-17,-4,-2
-23,-2,4
-27,1,-1
-30,3,-1
-35,7,-3
-34,8,-3
-37,5,-2
-33,9,-4
-31,6,-8
-32,6,-10
-32,6,-8
-26,5,-9
-24,4,-10
-23,0,-9
-20,0,-6
-21,4,-8
-20,-2,-6
-16,-1,-6
-15,0,-5
-13,0,-4
-15,0,-5
-15,0,-1
-13,1,0
-12,3,-3
-7,3,-3
-1,7,-4
0,9,-5
5,9,-7
10,5,-5
12,6,-10
15,5,-7
18,4,-6
14,3,-11
18,0,-7
17,0,-8
19,-2,-4
18,0,-5
13,-1,-4
12,2,-3
10,0,0
9,2,-2
3,3,-1
0,3,-1
-2,1,0
-4,3,-2
-5,1,0
-5,3,0
-4,1,1
-7,0,-2
-2,0,-1
-4,0,-1
-3,1,-2
-5,0,-2
-5,2,-1
-2,1,-3
-3,1,-2
-5,-1,-3
-2,2,-1
-1,2,-4
-4,3,-1
-2,2,0
-3,3,-1
-1,2,-2
-4,2,-2
-1,6,-1
-2,2,0
-2,2,-1
0,3,0
0,5,-2
1,2,-1
-1,4,-2
-2,5,0
0,4,0
-1,6,1
0,3,5
0,2,0
0,5,1
-1,5,2
0,6,2
1,6,5
0,6,4
2,2,3
2,2,2
2,0,5
3,4,3
4,0,1
4,0,1
4,1,1
4,2,0
5,3,0
5,1,-2
10,-1,-1
10,2,-3
14,0,-4
9,3,-7
3,5,-6
0,7,-3
-7,7,-3
-7,9,-1
-15,13,1
-22,14,3
-26,18,4
-22,21,5
-16,26,2
-10,28,0
0,28,0
5,26,-1
15,17,-6
22,14,-5
29,3,-9
31,0,-10
33,-9,-10
30,-9,-8
29,-12,-8
22,-13,-5
15,-12,-3
8,-10,-1
4,-7,3
2,-5,5
-7,-4,6
-11,-1,7
-14,0,7
-15,0,8
-17,-1,8
-17,-1,5
-15,-1,5
-14,0,2
-14,-1,0
-11,1,-2
-10,0,-4
-9,2,-5
-7,0,-6
-8,2,-6
-4,4,-10
-7,4,-7
-9,7,-7
-8,5,-4
-9,6,-3
-11,9,-2
-10,6,1
-11,10,-1
-14,7,3
-11,8,0
-7,9,1
-2,7,0
1,10,-1
9,9,-3
13,6,-2
17,4,-5
20,3,-7
22,1,-9
25,-1,-6
24,-5,-7
24,-2,-8
27,-5,-5
20,-4,-4
20,-4,-1
18,-3,-1
13,-1,0
10,-1,0
6,0,1
2,1,2
-4,3,0
-5,4,0
-6,4,4
-7,4,1
-10,4,1
-7,6,0
-6,4,-2
-9,2,-3
-4,1,-2
-3,-3,-2
-4,0,-2
-5,2,0
0,-2,-1
2,-4,1
-2,-4,0
0,-5,0
0,-4,0
1,-6,0
4,-4,0
3,-3,-1
3,-1,-1
5,-4,2
6,-2,0
4,-2,1
6,-1,0
6,-1,0
7,0,1
5,-3,0
3,-5,1
2,-1,-1
3,-3,1
3,-1,2
1,-1,3
2,-2,1
1,-1,3
2,-1,5
2,3,4
0,4,2
0,2,4
3,0,5
4,0,3
7,0,3
5,0,8
7,-1,4
5,-3,7
7,-1,4
10,-2,3
6,-7,3
8,-5,2
8,-6,2
7,-4,2
5,-4,0
3,-6,3
6,-5,0
8,-5,1
8,-4,0
12,-5,0
12,-1,0
7,-5,-3
0,-2,0
-5,-4,-1
-11,-2,-4
-16,4,-1
-22,4,0
-25,11,1
-26,13,2
-22,18,1
-14,26,-1
-3,28,-4
9,27,-6
18,19,-5
29,11,-6
35,3,-5
40,-8,-3
40,-19,0
37,-26,6
35,-34,5
28,-35,9
22,-37,10
15,-34,12
10,-27,15
0,-24,17
-1,-16,15
-8,-11,15
-11,-3,12
-12,0,9
-13,5,8
-16,7,6
-16,12,3
-14,10,0
-14,12,-1
-12,11,-2
-9,8,-2
-5,5,-3
-5,2,-2
0,0,-6
0,-3,-5
1,-2,-3
1,-8,1
0,-9,0
0,-6,3
-4,-7,3
-6,-9,6
-5,-5,8
-6,-4,7
-8,0,6
-7,1,10
-1,-1,10
6,2,7
11,2,7
14,4,3
19,3,1
23,1,2
27,-1,1
31,-3,0
32,-4,0
29,-3,1
30,-6,0
25,-5,0
22,-4,0
22,-3,4
14,0,1
11,-1,5
9,2,6
8,2,8
6,4,8
2,4,5
-1,2,7
-1,3,6
0,1,5
-1,1,4
-1,0,1
1,0,0
1,-2,0
1,-1,-1
4,0,0
4,-5,-1
3,-1,-1
3,-2,-3
3,-3,0
7,-3,-2
7,-4,-5
7,-3,-4
7,-3,-2
7,-3,-2
5,0,0
6,-2,0
3,1,-2
-1,0,0
3,0,1
1,0,0
0,1,3
2,1,2
-2,1,5
-1,0,0
0,6,2
-4,4,4
0,7,3
-2,6,6
-2,6,0
1,6,4
2,4,4
1,4,5
6,1,6
4,1,6
6,2,7
5,0,4
7,0,4
9,0,5
9,-2,6
11,0,5
12,-2,4
12,0,5
9,-3,1
11,-3,4
16,-1,3
18,0,0
18,4,-5
14,5,-4
8,7,-6
3,7,-5
0,9,-5
-9,11,0
-15,12,3
-22,15,8
-20,18,7
-14,22,7
-1,23,4
9,25,1
17,19,1
27,13,-2
34,4,0
36,-5,1
41,-15,3
36,-22,4
33,-27,6
26,-32,8
22,-34,9
12,-27,10
6,-24,12
0,-17,15
-6,-14,13
-9,-1,13
-11,4,14
-14,8,10
-15,14,8
-16,20,7
-16,19,5
-12,18,6
-8,17,3
-10,15,0
-8,12,1
-5,8,2
-3,5,-2
2,2,0
7,-3,2
11,-7,0
8,-10,0
4,-9,1
4,-10,2
4,-9,3
0,-11,8
2,-7,8
-2,-1,8
-1,0,8
0,0,7
0,8,5
4,5,9
11,8,5
15,11,0
22,12,0
25,6,0
27,6,0
30,4,-1
31,0,0
25,-2,0
25,-5,-1
24,-7,1
17,-1,2
18,-1,1
10,-1,4
7,0,2
4,0,5
3,3,4
0,5,4
-4,5,2
-4,5,2
-6,3,2
-8,5,0
-8,5,-1
-8,4,-5
-8,1,-6
-6,0,-7
-4,-3,-5
-4,-2,-5
-4,-4,-3
-4,-4,-7
-4,-1,-4
-2,-4,-6
-4,-3,-6
0,-4,-4
-1,-3,-4
-1,-3,-4
-2,-3,-2
-1,-1,0
-4,0,-2
-7,0,-1
-3,1,0
-4,0,0
-5,2,2
-7,3,-1
-6,2,1
-4,5,4
-4,6,5
-5,2,1
0,2,3
3,2,10
2,2,5
3,2,7
4,3,4
8,0,4
15,0,5
13,-2,5
17,-4,6
17,-3,4
19,-5,5
19,-8,5
20,-6,2
20,-7,4
18,-3,0
13,-3,-1
6,-3,0
3,0,-2
-3,5,-2
-11,8,-1
-21,12,1
-28,12,7
-31,18,5
-29,23,7
-20,24,5
-9,26,1
4,22,0
10,17,-3
20,11,-3
26,4,-3
29,-7,-6
33,-15,0
28,-19,-1
23,-22,0
18,-27,-2
11,-27,0
3,-26,-1
-2,-23,-1
-7,-19,0
-11,-17,2
-21,-12,3
-23,-5,4
-31,-3,3
-32,2,3
-34,3,0
-38,5,1
-38,9,-1
-38,7,-1
-39,11,-5
-34,11,-4
-33,14,-7
-30,7,-4
-25,7,-5
-19,7,-7
-11,3,-9
-10,3,-9
-7,0,-5
-2,-1,-9
-2,-1,-6
0,-4,-5
3,-2,-5
1,-4,0
3,-3,-1
0,0,2
4,3,0
5,2,-1
10,4,-3
14,10,-4
18,10,-6
19,8,-6
24,6,-8
23,5,-10
24,2,-9
22,1,-8
21,1,-8
17,0,-10
15,-2,-10
11,-2,-10
9,-3,-5
5,0,-5
2,2,-10
-1,0,-3
-3,2,-4
-8,3,-3
-10,3,-3
-13,2,-5
-12,4,-2
-14,2,-3
-16,3,-4
-13,1,-4
-13,1,-3
-14,1,-3
-10,10,-4
-10,8,-4
-9,3,-2
-9,2,-2
-9,2,-5
-6,1,-4
-5,2,-3
2,0,-1
0,3,0
3,3,-1
3,3,0
5,3,-2
6,4,0
4,8,0
9,5,0
8,7,0
10,7,0
8,6,1
11,3,1
9,4,1
9,4,0
9,2,3
7,1,0
9,3,-1
11,0,0
9,2,0
9,3,0
10,0,0
8,0,0
12,-1,0
14,2,0
16,6,-3
15,9,-2
6,9,0
0,11,-2
-1,8,-1
-5,8,0
-12,14,2
-18,15,3
-22,16,7
-18,20,6
-13,36,5
-4,36,3
5,31,0
14,26,-1
21,14,0
30,9,-4
34,3,-3
36,0,-4
36,-7,-7
33,-13,-6
30,-13,-3
25,-15,-2
20,-18,0
13,-15,2
8,-14,3
2,-8,5
-4,-10,5
-4,-7,9
-7,-8,7
-11,-5,7
-11,-3,4
-13,-2,7
-15,1,3
-16,0,2
-16,1,0
-15,8,-3
-14,8,-4
-14,10,-5
-12,6,-5
-14,5,-7
-10,0,-6
-8,0,-4
-13,0,-5
-12,0,-1
-13,-3,0
-15,-4,2
-13,-5,1
-11,-4,1
-13,-4,2
-12,-6,1
-6,-2,2
-2,-1,5
0,3,0
1,6,0
10,3,-3
10,5,-2
15,3,-3
17,6,-1
20,2,-3
19,2,-3
20,0,-4
21,-1,0
24,-6,2
19,-8,3
17,-11,1
15,-11,2
8,-8,0
6,-7,2
5,-5,0
3,-6,3
1,0,2
0,-1,-1
0,2,3
-3,13,1
-4,22,-3
-2,35,0
-3,40,-1
-2,40,-3
-2,41,-4
-3,39,-2
-3,38,-3
-2,35,-1
-2,31,-1
0,26,-2
1,23,-4
0,22,-3
0,19,-1
0,20,-2
0,18,-6
-1,17,-5
-1,21,-5
0,20,-6
0,17,-4
-1,16,-5
0,19,-6
2,18,-3
1,22,-5
-2,20,0
4,21,0
0,19,3
0,15,0
2,16,1
0,17,0
1,22,0
1,23,0
2,27,0
3,32,-1
3,34,-2
6,42,-3
9,45,-8
11,52,-9
11,61,-11
9,71,-14
6,80,-14
0,84,-16
-7,88,-18
-12,98,-19
-16,98,-19
-23,100,-16
-29,99,-15
-29,96,-11
-24,93,-10
-17,91,-10
-9,88,-9
-1,81,-13
9,77,-12
15,72,-14
22,62,-12
24,53,-17
26,48,-15
23,47,-14
20,42,-12
15,39,-11
13,37,-10
7,31,-5
2,29,-4
-4,24,-4
-8,23,-1
-12,19,-3
-14,20,0
-19,17,3
-21,17,1
-23,15,0
-25,13,-4
-26,13,-4
-29,12,-4
-23,10,-5
-23,10,-10
-23,8,-11
-19,5,-13
-17,6,-14
-15,0,-16
-14,-4,-15
-12,-6,-16
-11,-13,-19
-10,-13,-20
-13,-18,-19
-10,-22,-20
-11,-26,-17
-9,-26,-16
-10,-27,-16
-9,-27,-11
-4,-28,-13
1,-25,-9
2,-29,-9
7,-30,-9
9,-32,-4
12,-33,0
13,-32,0
16,-34,-2
22,-33,-3
24,-35,4
28,-29,5
25,-25,4
28,-17,6
25,-12,6
21,-7,8
23,0,8
20,3,12
18,3,13
15,6,11
14,11,12
12,11,13
12,7,12
9,6,12
11,4,11
9,4,12
10,4,11
12,-1,14
9,-3,13
11,-8,13
11,-9,12
9,-11,11
11,-11,12
11,-12,13
11,-9,9
11,-12,11
9,-13,10
10,-11,9
5,-11,10
7,-10,12
8,-11,8
4,-10,8
4,-10,5
0,-11,5
-3,-8,4
-3,-9,4
-6,-9,5
-8,-5,2
-9,-9,3
-10,-10,5
-7,-13,4
-6,-12,6
-4,-14,4
-3,-17,6
0,-13,6
0,-17,4
3,-21,7
4,-20,5
6,-21,7
8,-23,5
11,-18,6
12,-17,5
11,-14,1
7,-6,4
1,-1,3
-2,7,6
-10,14,4
-17,20,5
-23,24,11
-23,27,9
-19,26,9
-13,31,5
-5,26,8
6,21,1
18,10,2
27,6,1
32,-2,-5
38,-11,-2
36,-19,-2
36,-24,3
29,-34,3
24,-34,9
16,-37,14
12,-38,13
8,-39,18
0,-35,19
-1,-35,20
-2,-32,21
-5,-30,20
-2,-28,18
-5,-26,18
-5,-21,14
-2,-21,13
0,-14,11
2,-7,8
6,-3,6
8,6,7
10,17,2
9,23,3
12,37,2
13,48,1
10,57,0
8,66,1
0,68,-3
-3,70,-2
-4,68,1
-10,66,0
-17,59,1
-18,48,4
-24,44,6
-23,33,4
-23,27,4
-20,22,-1
-16,17,0
-7,12,0
-4,10,-7
3,8,-3
6,4,-3
11,0,-3
13,2,-3
17,0,-7
19,-2,0
21,-1,6
21,-5,5
19,-2,6
18,-2,9
17,-5,10
16,-3,15
13,0,11
10,-3,13
9,-2,13
5,-2,10
7,-4,10
5,-1,9
4,-2,10
4,1,8
5,2,6
4,4,7
3,6,7
8,5,4
7,6,7
7,4,6
9,4,7
8,5,7
8,2,6
7,3,0
8,2,0
6,5,1
8,1,2
9,4,-1
8,0,0
5,-1,0
5,0,0
4,-1,0
2,-1,-1
3,-3,0
3,-8,0
3,-10,-2
1,-7,-2
2,-6,-2
0,-9,-2
1,-8,-3
1,-8,-3
2,-9,-3
2,-11,-2
6,-9,-3
6,-6,-2
0,-6,0
-4,-6,-2
-10,-2,-1
-10,0,0
-14,3,-2
-18,2,3
-21,6,1
-22,10,1
-16,12,0
-9,16,0
-1,16,0
8,14,0
18,10,-4
25,5,-3
30,0,-4
36,-7,-7
38,-10,-8
36,-21,-5
35,-23,-4
27,-27,-8
26,-30,-1
17,-31,-1
12,-29,1
7,-29,0
3,-22,2
0,-20,2
-4,-19,1
-11,-14,2
-12,-11,3
-15,-9,2
-15,-8,0
-16,-6,-6
-13,-4,-4
-15,-4,-9
-17,0,-10
-15,0,-13
-13,2,-10
-13,0,-14
-11,-1,-9
-15,-1,-11
-15,-4,-11
-13,-6,-4
-16,-7,-6
-16,-9,-3
-14,-15,0
-15,-17,1
-11,-21,0
-13,-23,4
-11,-26,6
-7,-23,7
-2,-24,3
5,-25,3
13,-27,4
15,-20,2
22,-17,0
25,-19,4
29,-15,6
29,-12,2
29,-9,2
30,-8,0
31,-6,5
29,-4,6
26,0,5
24,1,6
19,0,7
16,5,3
13,1,6
13,3,4
8,6,6
8,3,3
3,1,5
4,0,4
5,-3,6
3,-5,1
4,-8,6
2,-8,6
2,-9,2
1,-12,3
3,-7,3
1,-11,1
3,-11,-1
1,-10,0
2,-12,0
1,-11,-1
4,-11,1
3,-13,-1
2,-14,-1
2,-14,-2
1,-13,-4
0,-18,0
2,-16,-4
1,-18,0
0,-14,0
0,-14,-4
3,-17,0
1,-12,2
-1,-14,1
2,-11,1
3,-11,2
4,-10,1
9,-10,0
8,-7,0
4,-6,-2
-1,-2,-2
-4,0,-2
-10,1,0
-18,3,1
-19,6,7
-26,10,7
-21,14,5
-16,15,8
-3,21,3
9,16,5
20,16,3
29,8,3
37,3,3
42,-8,2
43,-15,1
45,-24,5
39,-29,5
39,-33,8
34,-39,8
26,-38,11
20,-35,12
9,-32,10
6,-26,9
0,-21,9
-7,-15,9
-10,-8,7
-15,-3,3
-18,1,3
-22,10,2
-19,7,0
-18,12,-2
-17,13,-2
-15,13,-5
-11,12,-6
-8,9,-4
-7,5,-6
-3,-2,-4
-2,-7,-1
-6,-7,-2
-5,-13,3
-4,-12,2
-5,-15,6
-5,-17,7
-6,-16,7
-3,-19,10
-2,-17,9
-2,-13,11
6,-11,12
10,-6,9
14,-2,4
21,-4,7
26,1,5
29,0,5
29,0,6
30,-2,5
34,0,6
33,0,4
31,0,5
30,1,5
29,0,3
26,-1,6
25,-1,6
21,1,6
21,2,9
18,0,7
15,1,12
14,-1,4
11,-1,6
12,-1,8
12,0,6
11,-3,5
13,-3,3
8,-4,4
11,-7,3
10,-5,1
8,-6,-2
8,-7,-2
6,-7,-4
4,-3,-9
3,-9,-7
0,-5,-9
2,-4,-11
-4,-5,-13
-3,-1,-10
-4,-3,-14
-2,-4,-12
-5,-2,-14
-8,0,-10
-7,0,-11
-8,-1,-10
-8,0,-9
-7,0,-9
-7,0,-5
-9,1,-8
-9,-2,-3
-8,0,-1
-6,0,0
-5,-1,-1
0,0,-3
0,0,-2
0,0,-2
-2,1,-2
-3,4,-4
-5,5,-1
-11,8,0
-16,9,3
-21,10,8
-20,15,10
-13,16,9
-5,19,6
6,15,10
16,19,4
23,14,4
31,9,3
37,3,5
40,-4,4
36,-10,4
33,-19,6
