74540
74683
74892
75075
75234
75375
75555
75752
75801
75870
75865
75699
75295
74916
74828
75100
75426
75655
75835
76003
76143
76238
76295
76336
76327
76297
76219
76152
76081
76052
76068
76059
76054
76026
76021
75901
75828
75766
75731
75731
75800
75899
75934
75999
76000
75925
75938
75908
75877
75853
75829
75822
75852
75840
75811
75793
75762
75738
75721
75700
75611
75563
75547
75529
75593
75619
75637
75621
75643
75631
75618
75610
75585
75553
75566
75546
75564
75553
75577
75609
75611
75613
75594
75584
75588
75564
75521
75500
75392
75293
75209
75202
75209
75241
75269
75306
75333
75366
75376
75376
75403
75426
75430
75420
75444
75470
75476
75497
75533
75545
75567
75577
75568
75595
75584
75620
75657
75719
75717
75685
75601
75563
75564
75551
75539
75520
75534
75549
75534
75545
75582
75563
75559
75560
75571
75572
75562
75596
75569
75573
75568
75564
75553
75557
75574
75588
75550
75499
75484
75503
75493
75477
75478
75495
75495
75499
75504
75547
75560
75548
75556
75572
75586
75601
75599
75609
75618
75622
75642
75640
75654
75635
75631
75584
75595
75611
75645
75688
75732
75756
75777
75777
75791
75778
75725
75696
75663
75662
75626
75622
75635
75618
75618
75632
75630
75652
75653
75648
75587
75541
75531
75533
75525
75555
75550
75583
75597
75615
75621
75624
75647
75658
75643
75628
75647
75663
75672
75685
75681
75704
75723
75703
75703
75697
75695
75672
75659
75575
75530
75510
75516
75521
75546
75548
75560
75560
75578
75603
75619
75607
75612
75611
75636
75627
75651
75661
75661
75688
75695
75710
75728
75729
75728
75749
75762
75740
75789
75742
75713
75643
75608
75601
75585
75613
75608
75623
75635
75639
75639
75653
75653
75646
75612
75628
75615
75625
75615
75634
75634
75651
75668
75648
75664
75660
75652
75670
75663
75668
75645
75583
75543
75516
75508
75496
75513
75504
75518
75522
75506
75528
75525
75527
75497
75497
75506
75517
75536
75527
75516
75511
75513
75520
75498
75514
75507
75485
75420
75363
75313
75300
75297
75306
75323
75313
75333
75334
75341
75351
75349
75334
75328
75339
75363
75349
75333
75348
75342
75356
75349
75346
75331
75361
75339
75305
75201
75126
75107
75075
75061
75088
75086
75111
75128
75153
75144
75160
75186
75175
75187
75200
75205
75209
75198
75217
75201
75202
75222
75209
75209
75203
75239
75247
75253
75226
75161
75092
75082
75078
75057
75073
75113
75115
75136
75171
75176
75187
75178
75194
75205
75184
75199
75212
75227
75222
75238
75254
75266
75267
75270
75278
75284
75288
75313
75322
75338
75362
75346
75326
75249
75220
75194
75191
75187
75167
75174
75164
75161
75168
75160
75199
75191
75228
75209
75230
75217
75228
75245
75248
75248
75251
75233
75263
75246
75249
75251
75255
75247
75267
75231
75155
75122
75065
75062
75038
75030
75051
75059
75075
75056
75049
75056
75043
75045
75053
75035
75023
75034
75030
75036
75008
75023
75021
75059
75048
75048
75050
75044
75004
74937
74900
74885
74859
74850
74858
74874
74894
74885
74901
74914
74911
74905
74924
74915
74923
74924
74948
74942
74944
74956
74977
74987
75039
75045
75073
75081
75041
75022
74941
74901
74887
74874
74867
74851
74889
74895
74897
74891
74917
74913
74925
74924
74912
74905
74912
74925
74937
74923
74918
74900
74898
74845
74808
74812
74748
74730
74679
74617
74487
74384
74335
74298
74257
74276
74270
74290
74311
74245
74206
74141
74124
74046
73965
73879
73811
73708
73616
73577
73494
73434
73381
73331
73305
73309
73299
73262
73231
73224
73243
73211
73109
73033
72917
72783
72641
72465
72256
72048
71772
71440
71171
70992
70887
70875
70877
70956
71074
71166
71296
71456
71537
71528
71453
71392
71383
71390
71388
71348
71307
71076
70869
70471
69972
70097
70886
71907
73227
73722
73639
73882
73877
73684
73887
73903
74138
73937
72937
74660
76182
76939
76990
76939
76961
76951
76922
76872
76844
76787
76766
76749
76809
76829
76845
76867
76815
76831
76787
76899
76863
76672
76423
75995
76240
76364
76395
76760
76982
77075
76997
76904
76411
75268
74350
74206
74535
74884
75548
76011
75803
75901
76142
76374
76330
76046
75708
75680
75667
73641
72426
71917
71905
72334
72792
73129
73338
73518
73565
73609
73684
73776
73852
73993
74153
74316
74495
74681
74847
75022
75109
75242
75350
75441
75498
75528
75566
75577
75567
75606
75642
75677
75751
75751
75732
75680
75694
75740
75778
75863
75934
76024
76109
76198
76258
76259
76289
76284
76329
76366
76407
76389
76466
76481
76481
76477
76498
76519
76547
76561
76562
76539
76525
76470
76393
76331
76296
76293
76288
76323
76306
76294
76251
76209
76186
76159
76142
76165
76175
76201
76226
76221
76251
76241
76262
76272
76262
76259
76261
76255
76216
76216
76191
76145
76106
76060
76024
76013
76017
76024
76057
76087
76074
76081
76088
76095
76105
76111
76111
76061
76102
76101
76116
76116
76134
76098
75868
75422
75007
74645
74292
73855
73437
73027
72675
72408
72182
71949
71701
71542
71415
71249
70985
70793
70694
70406
70294
70098
69830
69989
70562
71477
73099
72472
73773
73237
73470
72799
72132
71774
71719
71531
71474
71531
71534
71650
71703
71710
71410
71243
73946
75578
77364
75655
72811
68689
68603
70602
69929
69761
71669
73486
73267
73493
74546
76003
76642
76171
74529
76889
75868
72890
72545
74346
74636
75030
75201
75297
75370
75358
75561
75886
76255
76445
76604
76761
76819
76315
75983
76558
77138
77216
76488
75298
76789
76213
75776
75331
74614
74384
74032
73770
73422
73100
72749
72304
72006
72128
72332
72971
73146
73389
73697
73898
74283
74731
74931
75168
75364
75404
75525
75651
75756
75851
75967
76073
76137
76216
76301
76364
76379
76362
76331
76267
76217
76170
76098
76076
76031
75985
75966
75894
75833
75781
75723
75669
75660
75659
75674
75727
75784
75805
75869
75871
75858
75818
75798
75748
75697
75657
75618
75573
75556
75543
75559
75545
75511
75524
75484
75442
75385
75395
75477
75547
75672
75748
75733
75722
75762
75770
75749
75749
75730
75683
75640
75604
75569
75545
75512
75483
75468
75469
75463
75452
75454
75419
75360
75297
75258
75254
75224
75244
75247
75256
75265
75330
75348
75384
75375
75390
75432
75442
75442
75450
75476
75450
75456
75412
75392
75374
75342
75321
75235
75154
75085
75069
75013
74992
75018
75039
75044
75034
75064
75083
75073
75083
75022
75025
74983
74971
74918
74879
74862
74839
74839
74810
74832
74830
74817
74825
74838
74824
74817
74761
74752
74735
74742
74714
74688
74690
74697
74739
74748
74800
74820
74824
74877
74889
74879
74820
74768
74724
74678
74610
74467
74285
74164
74159
74089
73986
73866
73788
73726
73637
73508
73432
73362
73296
73219
73109
73063
72993
72965
72927
72902
72853
72750
72707
72652
72654
72634
72617
72624
72611
72590
72592
72587
72562
72556
72563
72493
72401
72326
72279
72245
72226
72235
72218
72277
72332
72359
72390
72395
72397
72364
72380
72400
72400
72413
72430
72464
72506
72511
72529
72539
72552
72561
72508
72393
72356
72315
72296
72295
72289
72311
72320
72337
72364
72383
72393
72410
72478
72499
72522
72544
72579
72557
72573
72614
72616
72625
72652
72654
72662
72660
72589
72537
72510
72489
72486
72491
72513
72548
72568
72608
72620
72636
72657
72658
72651
72658
72681
72681
72687
72691
72734
72741
72736
72742
72757
72795
72816
72823
72809
72760
72709
72662
72658
72678
72681
72677
72726
72733
72753
72795
72808
72820
72831
72854
72870
72835
72857
72892
72865
72849
72887
72907
72918
72939
72946
72972
72982
72941
72885
72842
72846
72880
72884
72912
72938
72959
72996
73035
73049
73055
73072
73084
73111
73130
73135
73150
73153
73180
73202
73224
73232
73241
73258
73235
73201
73122
73091
73050
73055
73042
73060
73091
73095
73130
73136
73147
73154
73154
73157
73168
73168
73186
73189
73202
73217
73237
73268
73261
73267
73273
73264
73289
73224
72074
72120
72144
72147
72180
72222
72221
72289
72293
72351
72361
72381
72373
72384
72411
72404
72438
72436
72455
72487
72490
72508
72526
72532
72556
72555
72577
72601
72602
72550
72480
72455
72428
72427
72442
72471
72493
72495
72513
72534
72561
72570
72581
72564
72561
72570
72592
72617
72608
72638
72655
72661
72678
72692
72706
72695
72734
72748
72773
72779
72771
72719
72648
72645
72631
72645
72638
72681
72695
72726
72720
72767
72778
72774
72765
72785
72792
72807
72821
72819
72826
72822
72817
72824
72846
72832
72843
72828
72829
72824
72810
72724
72678
72635
72603
72605
72594
72617
72623
72632
72673
72682
72669
72672
72658
72660
72691
72688
72692
72727
72746
72745
72734
72758
72756
72769
72763
72773
72762
72697
72635
72601
72566
72567
72573
72587
72578
72606
72608
72636
72614
72586
72570
72463
72158
71812
71585
71510
71484
71535
71535
71572
71518
71422
71250
70997
70647
70310
69996
69756
69575
69459
69393
69419
69289
69270
69235
69151
69019
68895
68932
68978
69016
69027
69271
70136
74369
77043
76649
76090
75232
74403
73668
73248
73316
72220
71334
72004
73339
74218
74368
75030
76353
77129
77413
77625
77526
77354
77254
77236
77159
77142
77124
77109
77092
77081
77103
77183
77190
77231
77273
77039
76744
76316
76141
75778
75468
75422
75333
75334
75675
75205
74540
72814
72456
74055
73687
73855
73890
73893
73856
73911
73896
73950
73926
73923
73922
73959
73919
73865
73920
74010
74155
74236
74328
74459
74574
74690
74766
74818
74895
74972
75046
75094
75116
75156
75199
75216
75250
75283
75310
75321
75302
75295
75274
75235
75219
75237
75252
75286
75351
75382
75392
75406
75409
75398
75411
75394
75426
75454
75431
75460
75487
75475
75484
75510
75524
75538
75544
75518
75458
75446
75424
75419
75429
75437
75425
75410
75380
75351
75348
75316
75279
75240
75223
75201
75153
75105
75063
75025
75017
75025
75209
75609
75783
75761
75778
75424
75177
74799
74156
74203
74245
74340
74350
74476
74600
74671
74719
74713
74732
74710
74711
74719
74716
74707
74717
74719
74721
74727
74728
74734
74750
74709
74638
74629
74621
74622
74643
74651
74690
74703
74726
74719
74732
74738
74748
74716
74422
74528
74545
74579
74605
74619
74665
74671
74702
74735
74782
74805
74830
74868
74908
74902
74868
74810
74825
74819
74836
74851
74856
74884
74889
74905
74905
74931
74924
74937
74930
74954
74969
74979
74987
74998
75012
75020
75055
75053
75057
75080
75106
75087
75118
75110
75059
74986
74953
74920
74916
74904
74922
74937
74973
74992
75036
75063
75087
75112
75108
75124
75145
75126
75165
75163
75184
75203
75201
75223
75222
75251
75258
75243
75177
75167
75112
75110
75113
75137
75140
75158
75161
75176
75193
75165
75187
75180
75182
75167
75192
75173
75184
75220
75215
75233
75259
75273
75295
75314
75317
75321
75280
75237
75217
75213
75208
75219
75241
75268
75283
75303
75328
75334
75366
75362
75355
75386
75387
75383
75390
75394
75370
75364
75364
75373
75346
75377
75373
75379
75360
75322
75293
75250
75235
75211
75234
75212
75223
75259
75251
75277
75267
75268
75248
75264
75243
75270
75261
75254
75236
75259
75273
75251
75290
75277
75294
75293
75289
75293
75277
75235
75182
75187
75177
75142
75154
75163
75136
75140
75120
75106
75097
75115
75099
75083
75134
75177
75241
74906
74705
74535
74408
74322
74303
74281
74270
74254
74170
74117
74065
74023
73993
73999
74010
74022
74025
74080
74075
74088
74124
74166
74185
74194
74235
74243
74285
74281
74304
74322
74336
74355
74370
74399
74423
74336
74255
74202
74152
74149
74139
74181
74190
74212
74230
74263
74283
74288
74317
74343
74369
74348
74361
74368
74350
74386
74391
74399
74419
74441
74463
74482
74492
74521
74522
74504
74494
74422
74388
74377
74370
74380
74359
74360
74304
74293
74267
74272
74241
74229
74220
74190
74203
74229
74243
74251
74239
74253
74256
74241
74237
74231
74243
74211
74122
74012
73906
73867
73849
73858
73865
73868
73871
73878
73907
73936
73908
73901
73871
73832
73770
73763
73737
73706
73670
73656
73660
73636
73666
73674
73668
73638
73585
73504
73442
73339
73249
73175
73094
73024
72951
72888
72886
72854
72776
72632
72487
72207
71989
72171
71151
70409
70703
70497
70280
70343
70482
71137
71458
71657
72654
74271
75235
77143
75881
74113
71497
71365
70771
73435
73974
76076
76295
74480
71523
70184
71344
71888
72029
74123
75803
77072
75913
76745
77016
77079
77203
77187
75683
76045
75040
72815
72532
71346
71465
73751
74065
74606
75073
75539
75839
75954
75887
75821
75792
75751
75740
75711
75717
75750
75749
75739
75729
75691
75537
75501
75392
75212
75236
75376
75438
75477
75500
75403
75325
75174
75049
74916
74855
74840
74818
74798
74764
74764
74764
74725
74702
74722
74740
74750
74736
74711
74693
74674
74684
74692
74720
74757
74793
74823
74848
74826
74828
74813
74827
74870
74870
74878
74877
74874
74882
74876
74861
74871
74879
74858
74837
74761
74738
74720
74676
74701
74677
74682
74697
74678
74692
74696
74705
74701
74700
74698
74716
74695
74714
74722
74694
74704
74695
74708
74682
74706
74671
74606
74594
74568
74551
74542
74557
74585
74589
74564
74589
74575
74589
74580
74569
74561
74584
74566
74586
74589
74589
74601
74584
74600
74590
74557
74533
74467
74412
74421
74417
74434
74416
74432
74430
74442
74424
74419
74412
74386
74396
74381
74394
74414
74417
74403
74403
74426
74414
74435
74458
74439
74400
74368
74354
74341
74350
74329
74348
74364
74374
74393
74405
74407
74413
74411
74396
74404
74409
74417
74416
74408
74410
74427
74442
74424
74437
74443
74457
74422
74380
74340
74333
74340
74356
74359
74372
74373
74373
74391
74397
74401
74411
74403
74406
74415
74416
74429
74462
74425
74426
74435
74442
74456
74447
74449
74461
74435
74394
74360
74358
74366
74372
74381
74400
74407
74442
74424
74438
74472
74458
74469
74451
74456
74452
74463
74472
74490
74496
74501
74503
74514
74513
74513
74494
74455
74431
74410
74410
74402
74444
74458
74448
74469
74479
74477
74510
74502
74500
74505
74502
74510
74519
74528
74516
74532
74516
74534
74541
74545
74553
74547
74479
74453
74450
74449
74449
74476
74465
74488
74513
74525
74537
74540
74539
74564
74566
74565
74576
74553
74575
74572
74571
74587
74594
74606
74593
74639
74617
74598
74548
74522
74501
74513
74504
74523
74516
74552
74565
74574
74603
74594
74584
74585
74590
74592
74606
74625
74623
74622
74626
74618
74627
74633
74624
74629
74634
74639
74611
74558
74513
74527
74524
74540
74559
74560
74583
74570
74585
74566
74591
74596
74582
74564
74579
74572
74571
74561
74586
74573
74587
74609
74599
74596
74605
74596
74564
74515
74488
74498
74519
74513
74501
74521
74540
74555
74575
74586
74589
74569
74580
74584
74593
74607
74605
74604
74616
74619
74633
74629
74632
74649
74640
74612
74584
74559
74570
74556
74547
74577
74590
74605
74612
74612
74628
74635
74657
74643
74645
74650
74642
74652
74655
74655
74674
74674
74687
74686
74672
74684
74661
74621
74591
74603
74603
74600
74616
74623
74626
74665
74670
74677
74687
74678
74694
74684
74699
74706
74698
74718
74698
74722
74718
74730
74730
74743
74736
74743
74708
74688
74646
74651
74656
74655
74692
74677
74690
74712
74711
74714
74712
74726
74709
74720
74747
74729
74769
74739
74670
74666
74666
74672
74690
74696
74702
74713
74740
74726
74740
74734
74740
74732
74739
74755
74759
74746
74746
74771
74757
74780
74776
74732
74712
74684
74655
74687
74682
74682
74705
74705
74713
74725
74739
74737
74741
74744
74742
74744
74743
74768
74767
74770
74782
74772
74791
74800
74802
74795
74807
74775
74733
74706
74712
74711
74708
74720
74720
74730
74750
74736
74746
74750
74736
74751
74742
74749
74762
74746
74772
74780
74767
74767
74778
74794
74794
74787
74794
74771
74757
74710
74698
74690
74692
74697
74695
74717
74692
74714
74732
74742
74726
74751
74729
74720
74723
74733
74746
74760
74755
74765
74757
74763
74762
74774
74799
74784
74764
74722
74678
74671
74667
74686
74714
74708
74706
74718
74725
74757
74765
74761
74736
74746
74756
74754
74747
74744
74754
74753
74743
74771
74746
74778
74768
74792
74749
74720
74675
74678
74666
74668
74673
74675
74712
74698
74706
74713
74724
74729
74729
74724
74745
74716
74743
74739
74743
74750
74773
74770
74754
74781
74773
74766
74753
74728
74682
74666
74655
74668
74665
74670
74682
74703
74711
74706
74715
74708
74711
74723
74715
74725
74726
74739
74742
74742
74730
74755
74764
74746
74768
74767
74764
74747
74730
74690
74655
74642
74653
74661
74682
74677
74694
74700
74718
74729
74737
74732
74734
74749
74740
74753
74757
74740
74779
74783
74769
74792
74785
74786
74792
74792
74786
74747
74705
74707
74669
74692
74702
74721
74718
74747
74763
74745
74781
74775
74781
74766
74769
74757
74782
74777
74794
74818
74813
74808
74809
74812
74803
74815
74820
74786
74752
74712
74693
74715
74725
74731
74737
74759
74762
74776
74782
74790
74788
74778
74773
74793
74799
74801
74818
74810
74805
74822
74822
74828
74832
74838
74818
74783
74742
74728
74725
74718
74717
74722
74747
74756
74765
74779
74774
74806
74809
74788
74816
74815
74828
74821
74828
74830
74850
74829
74854
74846
74860
74853
74870
74830
74771
74747
74736
74743
74743
74750
74757
74779
74775
74778
74789
74800
74818
74797
74800
74824
74819
74815
74826
74817
74841
74862
74858
74867
74858
74860
74885
74885
74842
74793
74782
74755
74756
74759
74736
74786
74777
74780
74808
74791
74797
74809
74808
74819
74807
74810
74825
74823
74826
74828
74829
74832
74837
74820
74828
74847
74789
74750
74733
74712
74714
74740
74721
74737
74733
74748
74778
74767
74785
74773
74777
74791
74772
74780
74784
74810
74798
74805
74806
74822
74817
74810
74838
74786
74734
74712
74691
74692
74705
74714
74705
74726
74741
74753
74754
74759
74758
74773
74755
74749
74770
74755
74756
74765
74781
74784
74801
74790
74807
52338
74771
74728
74682
74663
74654
74662
74676
74705
74697
74724
74734
74741
74774
74747
74758
74765
74768
74769
74775
74764
74791
74772
74779
74780
74794
74786
74801
74796
74734
74708
74691
74692
74703
74703
74708
74727
74734
74745
74771
74766
74787
74791
74795
74807
74783
74781
74804
74796
74800
74814
74821
74828
74833
74830
74834
74826
74776
74719
74712
74701
74719
74717
74728
74732
74746
74764
74774
74775
74792
74786
74787
74766
74805
74795
74816
74814
74811
74827
74831
74819
74830
74815
74824
74831
74759
74713
74714
74718
74710
74717
74721
74750
74757
74747
74777
74782
74797
74797
74769
74789
74790
74795
74809
74810
74803
74811
74831
74835
74821
74828
74776
74757
74720
74689
74701
74704
74712
74733
74745
74751
74750
74789
74767
74768
74773
74763
74792
74776
74772
74784
74799
74796
74791
74813
74817
74835
74820
74770
74709
74701
74676
74689
74671
74690
74690
74702
74717
74715
74740
74740
74747
74757
74756
74733
74746
74743
74745
74766
74768
74759
74754
74760
74778
74762
74764
74746
74664
74660
74628
74628
74642
74648
74625
74654
74682
74669
74692
74705
74704
74691
74683
74679
74681
74707
74682
74695
74705
74693
74696
74696
74685
74708
74690
74662
74621
74589
74575
74541
74556
74538
74566
74585
74627
74622
74623
74620
74634
74632
74624
74624
74612
74614
74638
74658
74646
74637
74660
74685
74680
74672
74673
74602
74561
74551
74543
74529
74543
74565
74568
74587
74610
74609
74614
74627
74628
74624
74619
74646
74641
74644
74653
74633
74645
74650
74667
74655
74673
74647
74584
74548
74537
74533
74534
74520
74554
74589
74569
74587
74615
74627
74639
74620
74630
74634
74638
74638
74667
74647
74665
74630
74639
74629
74619
74637
74612
74588
74546
74536
74489
74494
74496
74496
74478
74483
74484
74475
74480
74428
74337
74226
74160
74080
74042
74010
73975
73907
73872
73883
73847
73844
73781
73736
73673
73572
73458
73363
73283
73245
73188
73120
73051
72999
72930
72809
72666
72437
72263
72027
71779
71472
71067
70678
70355
70071
69871
69682
69493
69356
69218
69053
68939
68871
68869
68887
68958
68962
68989
69030
69100
69132
69173
69307
69462
69597
69656
69709
69800
69805
69753
69644
69575
69503
69438
69435
69389
69338
69257
69130
69231
69809
70521
71740
72428
72590
72668
72785
72878
73029
73288
73457
73009
72788
73134
72964
72537
72175
71867
71920
72129
72337
72307
71927
70825
70435
70374
69964
69848
70480
72286
75075
76130
75982
76609
76578
76753
76475
75546
75811
75557
75718
76463
76084
74134
73752
73531
73513
73215
72737
72658
72728
72949
73177
72303
71699
71719
70766
69753
69432
69680
69831
69933
70563
69374
69126
70243
70636
70765
70794
70709
70441
