70785
70790
70809
70808
70814
70775
70686
70637
70595
70603
70574
70593
70620
70615
70647
70664
70703
70679
70681
70688
70662
70685
70693
70682
70703
70718
70710
70706
70723
70708
70710
70726
70706
70656
70598
70520
70492
70476
70462
70482
70499
70498
70527
70537
70565
70580
70573
70569
70571
70590
70590
70596
70602
70618
70600
70621
70622
70625
70639
70630
70544
70468
70420
70401
70381
70387
70403
70402
70446
70456
70480
70521
70536
70519
70504
70492
70516
70535
70541
70555
70560
70563
70569
70584
70594
70605
70583
70498
70431
70377
70369
70344
70336
70344
70359
70401
70421
70445
70451
70481
70467
70477
70482
70492
70490
70511
70509
70504
70536
70544
70555
70558
70559
70575
70574
70503
70435
70386
70338
70355
70357
70373
70374
70397
70407
70440
70465
70464
70468
70456
70461
70447
70470
70487
70493
70508
70496
70509
70503
70507
70524
70525
70541
70483
70409
70347
70294
70280
70281
70285
70295
70315
70330
70341
70352
70356
70355
70360
70362
70368
70393
70390
70404
70413
70414
70416
70415
70431
70451
70467
70416
70343
70292
70217
70225
70210
70213
70228
70267
70266
70289
70317
70311
70340
70347
70342
70345
70360
70356
70362
70374
70401
70414
70417
70436
70424
70444
70470
70449
70396
70311
70258
70232
70226
70229
70242
70254
70271
70297
70321
70335
70349
70356
70347
70356
70349
70364
70384
70374
70396
70416
70412
70424
70444
70436
70476
70483
70494
70469
70399
70317
70293
70255
70267
70277
70260
70290
70317
70370
70378
70394
70399
70395
70400
70396
70401
70418
70414
70436
70436
70440
70457
70471
70471
70473
70473
70477
70495
70488
70410
70337
70286
70274
70250
70270
70274
70303
70308
70335
70348
70375
70396
70365
70377
70360
70387
70404
70399
70418
70412
70432
70435
70446
70445
70456
70454
70490
70427
70360
70287
70252
70245
70239
70240
70245
70247
70272
70305
70338
70312
70346
70358
70351
70372
70383
70378
70385
70393
70395
70403
70404
70413
70441
70447
70453
70456
70423
70350
70278
70244
70234
70225
70232
70248
70277
70282
70305
70341
70352
70362
70358
70357
70379
70383
70375
70385
70386
70402
70436
70426
70431
70470
70465
70480
70487
70499
70465
70407
70323
70277
70261
70274
70271
70294
70321
70336
70371
70394
70407
70423
70413
70412
70421
70425
70438
70444
70454
70466
70479
70495
70503
70528
70668
70720
70734
70734
70740
70693
70610
70555
70545
70508
70522
70540
70577
70578
70608
70630
70644
70658
70687
70658
70659
70669
70688
70677
70694
70705
70738
70742
70738
70746
70762
70768
70770
70792
70744
70658
70611
70571
70553
70566
70575
70579
70596
70610
70631
70658
70685
70683
70683
70696
70689
70701
70710
70729
70741
70725
70760
70769
70792
70794
70807
70815
70803
70745
70666
70598
70590
70574
70589
70581
70593
70651
70645
70676
70694
70725
70731
70734
70735
70744
70759
70747
70780
70792
70786
70814
70823
70816
70832
70867
70857
70880
70873
70804
70730
70664
70639
70643
70639
70664
70673
70679
70713
70738
70761
70780
70769
70782
70787
70807
70791
70824
70807
70833
70854
70839
70880
70884
70887
70889
70918
70931
70933
70875
70797
70723
70703
70696
70707
70710
70738
70735
70756
70799
70827
70840
70838
70843
70862
70846
70832
70875
70862
70873
70889
70905
70914
70908
70912
70905
70934
70912
70895
70807
70742
70699
70682
70674
70679
70680
70705
70696
70742
70751
70778
70797
70789
70806
70780
70786
70811
70798
70831
70843
70839
70851
70870
70865
70874
70892
70882
70826
70727
70667
70647
70621
70630
70635
70633
70655
70665
70699
70730
70741
70752
70748
70766
70742
70750
70758
70781
70798
70791
70812
70835
70843
70836
70854
70868
70833
70796
70692
70644
70615
70608
70597
70620
70616
70655
70664
70687
70728
70737
70743
70764
70757
70761
70764
70748
70756
70776
70809
70803
70813
70831
70835
70857
70865
70859
70838
70817
70715
70684
70635
70623
70617
70658
70674
70686
70697
70732
70755
70763
70774
70776
70760
70754
70766
70763
70774
70783
70773
70798
70772
70786
70797
70786
70821
70790
70763
70683
70628
70577
70559
70556
70574
70585
70602
70617
70623
70665
70686
70695
70670
70678
70689
70701
70697
70709
70706
70715
70718
70731
70742
70727
70754
70740
70727
70663
70593
70549
70535
70530
70531
70536
70556
70583
70599
70621
70623
70644
70651
70659
70674
70663
70657
70672
70671
70689
70705
70693
70700
70713
70723
70745
70756
70719
70654
70591
70562
70511
70542
70526
70533
70553
70563
70584
70597
70628
70641
70658
70642
70636
70625
70651
70656
70674
70669
70686
70683
70696
70703
70721
70726
70728
70762
70720
70672
70616
70553
70533
70533
70551
70563
70574
70575
70605
70615
70618
70625
70635
70630
70630
70617
70632
70624
70649
70626
70647
70640
70660
70659
70665
70674
70700
70699
70667
70582
70528
70478
70479
70473
70469
70496
70501
70492
70537
70549
70565
70565
70557
70548
70584
70569
70571
70571
70588
70585
70605
70610
70625
70610
70613
70627
70635
70606
70567
70467
70439
70420
70402
70412
70417
70424
70448
70463
70487
70494
70522
70548
70549
70540
70535
70557
70562
70556
70575
70589
70574
70580
70598
70611
70610
70623
70632
70595
70515
70455
70439
70424
70443
70442
70459
70464
70456
70493
70508
70519
70527
70534
70549
70532
70543
70558
70571
70575
70570
70577
70582
70594
70605
70614
70621
70618
70655
70605
70554
70455
70446
70426
70431
70433
70448
70480
70482
70499
70505
70550
70529
70517
70521
70533
70547
70544
70549
70560
70560
70560
70558
70557
70569
70577
70588
70603
70572
70500
70448
70406
70387
70373
70393
70406
70402
70422
70451
70475
70488
70511
70499
70521
70506
70500
70504
70525
70519
70526
70536
70556
70578
70581
70584
70608
70608
70570
70485
70439
70393
70389
70374
70378
70383
70404
70414
70431
70457
70480
70498
70511
70521
70508
70506
70523
70532
70550
70553
70583
70548
70582
70585
70599
70613
70628
70607
70579
70504
70446
70416
70401
70406
70407
70428
70427
70457
70472
70518
70545
70531
70536
70547
70533
70527
70549
70557
70573
70580
70600
70590
70592
70627
70627
70649
70648
70656
70641
70594
70514
70469
70446
70444
70420
70456
70463
70466
70502
70512
70528
70544
70552
70548
70535
70548
70535
70544
70557
70580
70582
70570
70593
70590
70597
70607
70607
70616
70585
70498
70447
70410
70416
70404
70407
70410
70423
70464
70476
70500
70519
70502
70529
70540
70523
70523
70551
70552
70560
70570
70572
70553
70570
70615
70599
70634
70613
70584
70490
70446
70441
70421
70424
70432
70429
70458
70438
70478
70492
70505
70532
70550
70547
70541
70559
70578
70567
70573
70587
70602
70607
70652
70633
70649
70670
70682
70682
70623
70546
70502
70465
70484
70453
70464
70469
70490
70510
70542
70575
70574
70598
70584
70588
70591
70603
70603
70606
70623
70634
70652
70654
70645
70666
70687
70699
70697
70716
70712
70662
70590
70549
70516
70512
70512
70514
70538
70551
70577
70588
70609
70639
70631
70639
70612
70645
70643
70651
70659
70659
70669
70681
70683
70683
70702
70694
70706
70718
70711
70658
70594
70535
70536
70517
70516
70512
70542
70570
70579
70606
70615
70629
70629
70636
70642
70634
70644
70641
70681
70690
70701
70705
70702
70728
70730
70732
70763
70772
70771
70681
70608
70554
70558
70531
70535
70561
70566
70575
70612
70633
70663
70654
70660
70676
70690
70680
70694
70687
70726
70726
70729
70760
70760
70740
70760
70770
70780
70784
70778
70748
70680
70629
70597
70598
70581
70596
70614
70625
70630
70656
70667
70696
70708
70693
70713
70703
70709
70720
70709
70720
70744
70760
70744
70759
70764
70760
70773
70769
70799
70793
70707
70644
70581
70578
70557
70568
70576
70590
70613
70621
70643
70655
70648
70673
70667
70670
70658
70693
70668
70673
70689
70686
70709
70708
70716
70716
70734
70754
70709
70658
70574
70537
70512
70501
70498
70511
70514
70518
70547
70571
70579
70599
70613
70616
70603
70601
70605
70631
70621
70632
70646
70656
70665
70663
70667
70684
70695
70671
70597
70543
70492
70469
70479
70483
70493
70515
70515
70532
70561
70592
70591
70585
70588
70604
70602
70600
70599
70627
70627
70641
70638
70665
70662
70679
70691
70675
70693
70666
70605
70546
70494
70486
70477
70493
70489
70494
70523
70546
70565
70582
70593
70581
70583
70573
70588
70611
70613
70614
70624
70629
70623
70635
70641
70644
70667
70649
70628
70578
70492
70452
70431
70430
70448
70424
70447
70468
70492
70505
70532
70548
70540
70526
70526
70531
70529
70543
70548
70566
70561
70567
70566
70598
70598
70605
70605
70553
70497
70414
70394
70367
70382
70379
70370
70398
70399
70415
70451
70452
70469
70500
70493
70486
70507
70490
70507
70528
70534
70534
70537
70543
70563
70582
70583
70574
70560
70517
70428
70383
70372
70369
70377
70372
70373
70379
70395
70424
70444
70472
70488
70481
70465
70460
70482
70479
70500
70503
70509
70536
70520
70535
70559
70552
70568
70585
70580
70534
70465
70407
70378
70344
70337
70359
70371
70414
70408
70430
70453
70467
70482
70459
70445
70466
70436
70449
70465
70435
70479
70495
70484
70504
70506
70514
70519
70524
70537
70522
70445
70375
70329
70306
70305
70304
70304
70323
70340
70347
70388
70401
70424
70417
70410
70432
70418
70423
70424
70440
70459
70461
70471
70475
70468
70493
70497
70515
70530
70485
70463
70390
70315
70293
70295
70301
70297
70308
70315
70347
70344
70395
70415
70405
70410
70409
70428
70414
70408
70425
70450
70446
70448
70465
70472
70482
70484
70512
70525
70551
70536
70460
70392
70322
70329
70305
70331
70335
70330
70338
70366
70392
70418
70427
70446
70443
70428
70430
70435
70446
70464
70454
70461
70463
70481
70490
70486
70490
70496
70504
70506
70498
70463
70376
70329
70292
70291
70285
70304
70308
70324
70337
70339
70363
70399
70385
70407
70385
70387
70385
70390
70403
70405
70411
70418
70414
70440
70451
70449
70459
70477
70440
70391
70324
70268
70248
70246
70244
70238
70261
70277
70293
70323
70354
70373
70367
70373
70378
70372
70385
70397
70393
70402
70412
70419
70420
70449
70448
70472
70463
70486
70477
70452
70383
70331
70294
70277
70281
70298
70288
70294
70337
70341
70350
70375
70401
70415
70399
70403
70416
70406
70406
70444
70445
70433
70450
70460
70472
70493
70495
70502
70508
70514
70513
70441
70379
70322
70313
70306
70312
70329
70353
70361
70373
70394
70424
70449
70443
70443
70440
70437
70438
70454
70464
70443
70458
70468
70474
70491
70481
70485
70520
70519
70460
70403
70348
70312
70279
70280
70311
70302
70313
70343
70365
70389
70408
70426
70447
70433
70439
70442
70453
70454
70449
70477
70487
70481
70508
70504
70520
70537
70537
70526
70477
70410
70350
70338
70324
70335
70333
70355
70366
70386
70395
70428
70454
70435
70468
70473
70484
70485
70478
70483
70497
70513
70507
70529
70549
70549
70550
70566
70569
70547
70491
70425
70351
70352
70344
70365
70367
70392
70397
70425
70431
70472
70494
70471
70501
70486
70501
70501
70494
70513
70534
70530
70540
70544
70565
70577
70569
70595
70596
70578
70557
70491
70446
70382
70379
70385
70383
70397
70411
70424
70453
70474
70493
70493
70486
70479
70490
70476
70496
70502
70502
70531
70533
70544
70536
70556
70538
70566
70579
70558
70496
70418
70361
70332
70343
70351
70341
70371
70385
70391
70416
70442
70459
70460
70480
70461
70467
70485
70491
70482
70499
70502
70525
70529
70523
70528
70539
70562
70555
70561
70501
70432
70372
70319
70330
70309
70316
70352
70352
70374
70393
70419
70427
70444
70456
70462
70461
70469
70479
70483
70498
70506
70502
70537
70515
70545
70546
70555
70555
70572
70574
70550
70457
70401
70357
70343
70353
70358
70356
70376
70394
70413
70426
70464
70502
70463
70482
70501
70497
70494
70515
70502
70525
70539
70559
70557
70573
70573
70569
70604
70607
70613
70589
70563
70490
70432
70405
70399
70385
70402
70426
70430
70459
70474
70502
70520
70537
70540
70507
70542
70530
70553
70534
70542
70561
70563
70578
70585
70592
70586
70600
70633
70605
70568
70499
70456
70413
70388
70397
70400
70409
70433
70442
70469
70490
70503
70531
70546
70529
70521
70524
70542
70536
70554
70581
70588
70573
70589
70597
70569
70601
70615
70610
70595
70520
70430
70388
70366
70355
70383
70405
70419
70409
70418
70462
70470
70501
70508
70519
70520
70509
70526
70535
70532
70551
70552
70568
70585
70579
70570
70604
70601
70612
70639
70605
70568
70496
70435
70381
70396
70359
70428
70422
70434
70448
70461
70481
70510
70532
70541
70539
70542
70557
70552
70564
70561
70572
70583
70602
70572
70609
70589
70621
70622
70631
70645
70656
70668
70657
70570
70503
70465
70422
70407
70409
70431
70438
70470
70464
70495
70504
70530
70546
70544
70533
70540
70536
70542
70565
70552
70562
70584
70569
70588
70591
70583
70613
70608
70594
70609
70600
70558
70487
70418
70365
70354
70358
70370
70367
70391
70392
70416
70423
70467
70465
70483
70472
70474
70477
70497
70489
70476
70488
70497
70499
70518
70517
70506
70524
70526
70534
70491
70445
70366
70301
70275
70263
70267
70267
70280
70289
70307
70319
70368
70373
70377
70381
70396
70372
70380
70384
70373
70401
70412
70428
70428
70422
70439
70443
70460
70461
70462
70446
70407
70324
70249
70221
70224
70218
70219
70223
70233
70253
70265
70313
70312
70341
70352
70337
70354
70344
70341
70355
70351
70377
70361
70354
70392
70371
70399
70392
70400
70396
70408
70421
70440
70435
70400
70327
70248
70222
70212
70190
70206
70209
70219
70261
70268
70308
70329
70326
70335
70350
70341
70366
70357
70371
70355
70389
70399
70395
70377
70405
70425
70431
70430
70445
70455
70455
70464
70440
70433
70334
70292
70276
70204
70256
70256
70261
70272
70289
70323
70345
70348
70382
70371
70399
70369
70379
70388
70395
70394
70404
70412
70441
70440
70439
70447
70470
70473
70461
70476
70490
70485
70423
70350
70291
70275
70261
70261
70261
70283
70283
70322
70339
70366
70384
70402
70434
70431
70423
70423
70434
70440
70448
70437
70454
70467
70478
70491
70476
70488
70502
70527
70530
70491
70460
70383
70333
70314
70293
70295
70306
70319
70333
70340
70385
70397
70412
70421
70439
70436
70437
70451
70449
70466
70465
70462
70481
70496
70501
70527
70525
70518
70552
70552
70539
70511
70442
70365
70331
70332
70317
70323
70335
70339
70371
70385
70413
70431
70428
70441
70457
70440
70450
70444
70464
70478
70477
70474
70484
70479
70496
70505
70522
70519
70520
70484
70416
70370
70301
70277
70261
70283
70287
70291
70302
70343
70360
70372
70398
70395
70393
70394
70393
70388
70411
70402
70430
70434
70401
70440
70446
70456
70455
70493
70469
70432
70362
70291
70242
70251
70233
70236
70244
70251
70275
70299
70302
70350
70342
70369
70376
70395
70381
70387
70391
70396
70423
70421
70435
70440
70466
70470
70479
70496
70505
70509
70441
70365
70311
70268
70260
70253
70269
70265
70311
70309
70335
70359
70389
70406
70387
70414
70402
70398
70412
70422
70427
70430
70432
70456
70464
70464
70470
70482
70509
70513
70525
70522
70457
70405
70336
70315
70277
70313
70343
70323
70339
70366
70367
70400
70427
70421
70428
70429
70447
70419
70455
70458
70462
70446
70445
70495
70490
70503
70529
70543
70549
70539
70555
70505
70419
70361
70330
70310
70308
70330
70346
70361
70367
70405
70435
70439
70453
70465
70470
70461
70476
70479
70487
70495
70496
70533
70528
70535
70552
70555
70571
70580
70594
70575
70514
70443
70393
70367
70359
70359
70372
70385
70383
70420
70420
70450
70479
70502
70510
70477
70491
70497
70510
70511
70512
70505
70524
70529
70540
70554
70584
70579
70605
70606
70612
70599
70539
70458
70447
70424
70404
70414
70427
70446
70453
70482
70498
70528
70551
70547
70542
70545
70551
70553
70562
70562
70569
70563
70578
70587
70617
70175
70181
70203
70227
70244
70250
70230
70175
70118
70077
70070
70066
70053
70053
70075
70096
70100
70140
70157
70167
70179
70180
70162
70173
70160
70165
70178
70166
70185
70182
70210
70202
70221
70233
70218
70229
70240
70219
70122
70054
70036
70018
70009
70001
70017
70023
70037
70056
70081
70100
70121
70118
70124
70132
70107
70128
70140
70143
70135
70149
70168
70186
70180
70205
70221
70209
70204
70218
70225
70186
70099
70047
70006
69979
69980
69982
69988
69991
70015
70040
70066
70094
70098
70123
70108
70113
70115
70128
70127
70130
70149
70159
70176
70173
70199
70211
70210
70196
70221
70244
70243
70237
70191
70108
70062
70045
70028
70023
70029
70066
70085
70082
70117
70130
70154
70160
70175
70159
70164
70152
70169
70155
70164
70166
70180
70189
70191
70191
70214
70220
70220
70230
70240
70211
70159
70092
70049
70011
70011
70009
69996
70005
70038
70046
70069
70090
70133
70132
70130
70118
70113
70121
70132
70141
70137
70157
70159
70173
70166
70189
70183
70209
70214
70212
70172
70113
70046
70013
69997
70004
69996
70003
70006
70026
70054
70063
70101
70107
70120
70151
70141
70129
70135
70128
70152
70143
70148
70157
70161
70178
70178
70190
70207
70203
70215
70206
70139
70075
70020
70007
69992
70015
70017
70029
70038
70043
70081
70099
70112
70130
70136
70133
70106
70127
70128
70137
70140
70131
70155
70166
70181
70184
70207
70220
70222
70242
70256
70263
70201
70129
70080
70055
70053
70044
70052
70076
70092
70103
70129
70150
70180
70165
70169
70190
70169
70167
70182
70191
70201
70181
70206
70202
70222
70233
70233
70231
70252
70268
70254
70271
70207
70120
70077
70045
70049
70038
70046
70063
70062
70105
70111
70122
70141
70163
70161
70162
70192
70165
70185
70177
70189
70204
70198
70219
70228
70231
70261
70260
70265
70281
70291
70232
70163
70101
70068
70062
70052
70044
70072
70073
70099
70107
70150
70171
70166
70199
70203
70203
70193
70206
70216
70226
70233
70229
70236
70261
70271
70264
70299
70299
70311
70329
70295
70238
70175
70112
70098
70082
70077
70092
70093
70115
70146
70150
70188
70187
70182
70229
70226
70219
70212
70220
70251
70219
70248
70249
70264
70253
70270
70289
70302
70298
70300
70287
70275
70193
70146
70093
70079
70069
70064
70089
70096
70110
70132
70128
70178
70181
70188
70196
70184
70162
70178
70187
70195
70182
70195
70199
70198
70229
70235
70241
70249
70257
70257
70213
70126
70067
70055
70028
70007
70028
70012
70032
70062
70074
70102
70111
70142
70148
70156
70139
70147
70136
70170
70163
70170
70171
70187
70191
70217
70221
70239
70228
70234
70261
70232
70162
70128
70080
70024
70027
70017
70039
70045
70069
70077
70117
70138
70158
70153
70177
70176
70186
70182
70187
70210
70205
70215
70216
70216
70247
70247
70246
70247
70261
70276
70297
70263
70221
70148
70088
70059
70036
70057
70072
70075
70102
70108
70149
70171
70174
70199
70216
70213
70218
70191
70219
70222
70224
70236
70246
70214
70239
70244
70245
70262
70258
70285
70269
70213
70142
70086
70072
70048
70048
70042
70062
70070
70084
70114
70135
70167
70156
70175
70169
70169
70179
70164
70185
70198
70207
70205
70185
70221
70236
70251
70253
70260
70251
70229
70151
70078
70042
70044
70042
70033
70051
70068
70073
70082
70105
70152
70165
70170
70170
70169
64089
70148
70161
70186
70194
70184
70192
70197
70226
70239
70226
70219
70238
70223
70179
70113
70082
70012
70037
70016
70029
70036
70056
70068
70068
70089
70115
70119
70145
70142
70147
70140
70159
70144
70164
70169
70159
70181
70185
70199
70221
70226
70230
70251
70248
70212
70161
70086
70053
70021
70016
70009
70031
70040
70045
70074
70111
70115
70154
70146
70157
70159
70147
70129
70147
70150
70167
70178
70190
70193
70192
70212
70220
70213
70246
70254
70261
70225
70161
70103
70052
70034
70024
70036
70036
70058
70068
70078
70107
70127
70150
70162
70182
70144
70154
70170
70164
70186
70178
70179
70195
70207
70209
70206
70237
70240
70228
70218
70173
70098
70060
70033
70005
70011
69994
70033
70066
70066
70068
70099
70129
70144
70146
70170
70150
70144
70162
70175
70184
70168
70194
70191
70213
70218
70242
70235
70238
70213
70181
70091
70060
70028
70012
70014
70022
70027
70051
70061
70087
70121
70131
70140
70162
70150
70152
70165
70205
70176
70172
70190
70187
70208
70209
70234
70271
70246
70248
70253
70227
70152
70092
70054
70044
70036
70048
70056
70062
70088
70106
70135
70154
70178
70183
70201
70197
70211
70206
70206
70214
70217
70221
70242
70259
70271
70268
70265
70294
70311
70296
70256
70204
70118
70083
70070
70071
70081
70097
70122
70143
70158
70177
70187
70205
70226
70211
70210
70207
70218
70218
70221
70232
70249
70245
70250
70256
70296
70295
70327
70318
70297
70257
70186
70126
70067
70083
70079
70103
70105
70119
70126
70149
70170
70190
70232
70217
70221
70211
70201
70234
70243
70219
70239
70253
70267
70254
70281
70271
70290
70310
70275
70296
70241
70148
70112
70074
70062
70083
70065
70065
70091
70106
70132
70154
70195
70185
70189
70199
70184
70194
70182
70202
70221
70225
70243
70252
70256
70263
70288
70283
70288
70302
70328
70282
70245
70170
70116
70061
70053
70054
70066
70078
70097
70113
70136
70144
70190
70199
70185
70217
70197
70224
70217
70224
70226
70233
70269
70270
70265
70270
70289
70296
70306
70309
70309
70334
70308
70250
70170
70111
70097
70089
70074
70088
70089
70121
70137
70159
70186
70226
70227
70237
70224
70221
70235
70238
70221
70226
70231
70247
70248
70268
70276
70291
70277
70274
70299
70279
70230
70165
70111
70064
70056
70031
70061
70059
70084
70095
70114
70140
70172
70187
70196
70179
70198
70187
70207
70214
70213
70220
70222
70264
70246
70271
70253
70269
70282
70272
70271
70190
70109
70063
70053
70027
70038
70050
70061
70070
70112
70125
70147
70185
70196
70210
70216
70202
70212
70210
70201
70213
70237
70220
70255
70263
70271
70298
70299
70314
70310
70273
70193
70122
70092
70071
70048
70058
70067
70074
70130
70137
70162
70196
70202
70220
70211
70221
70236
70233
70235
70237
70243
70246
70267
70270
70291
70280
70292
70311
70310
70311
70260
70199
70134
70101
70091
70084
70091
70107
70117
70150
70165
70203
70227
70253
70255
70243
70261
70247
70241
70268
70262
70260
70276
70287
70291
70298
70321
70321
70334
70327
70309
70227
70156
70114
70087
70084
70093
70098
70127
70126
70138
70160
70204
70214
70213
70246
70230
70243
70222
70211
70233
70257
70254
70272
70280
70272
70285
70296
70304
70311
70272
70199
70137
70098
70063
70039
70039
70046
70062
70078
70095
70119
70144
70168
70196
70183
70177
70189
70172
70181
70206
70204
70175
70215
70220
70232
70248
70252
70243
70278
70272
70209
70132
70062
70016
70006
70010
70005
70017
70004
70027
70064
70083
70113
70124
70131
70142
70132
70137
70147
70129
70155
70139
70161
70196
70162
70196
70214
70201
70211
70229
70236
70226
70178
70079
70018
69992
69982
69962
69969
69990
70023
70041
70049
70086
70099
70136
70109
70105
70114
70125
70129
70132
70152
70147
70171
70154
70171
70189
70191
70187
70193
70218
70218
70183
70123
70019
69990
69967
69964
69979
69992
70004
70024
70058
70067
70103
70134
70142
70144
70121
70128
70129
70144
70168
70167
70181
70185
70192
70193
70205
70236
70219
70253
70251
70190
70112
70067
70020
69992
70001
70001
70039
70047
70066
70087
70085
70145
70152
70171
70152
70177
70171
70169
70184
70203
70181
70201
70191
70212
70223
70215
70244
70252
70278
70287
70259
70197
70121
70059
70045
70014
70024
70042
70061
70084
70101
70105
70148
70166
70202
70200
70199
70200
70195
70205
70202
70212
70212
70228
70225
70241
70252
70277
70285
70301
70301
70295
70348
70284
70230
70133
70092
70056
70069
70070
70078
70106
70108
70126
70146
70178
70188
70232
70208
70232
70210
70229
70225
70235
70223
70243
70238
70263
70265
70274
70304
70314
70323
70329
70319
70361
70331
70275
70202
70140
70117
70090
70101
70095
70115
70130
70175
70164
70202
70237
70245
70258
70252
70257
70247
70261
70267
70263
70281
70284
70278
70285
70295
70308
70306
70304
70350
70357
70322
70266
70174
70145
70111
70092
70097
70115
70123
70140
70163
70180
70195
70232
70231
70233
70227
70240
70241
70249
70251
70263
70269
70276
70285
70300
70307
70319
70328
70334
70327
70298
70219
70148
70114
70075
70066
70057
70095
70098
70116
70134
70148
70181
70204
70225
70230
70247
70235
70218
70232
70239
70249
70245
70252
70276
70275
70288
70286
70319
70300
70318
70305
70241
70161
70107
70075
70035
70035
70058
70066
70071
70110
70115
70141
70174
70198
70214
70214
70208
70208
70207
70219
70225
70226
70232
70227
70257
70250
70281
70287
70313
70280
70301
70281
70202
70128
70074
70033
70022
70028
70037
70060
70081
70083
70112
70134
70143
70165
70175
70138
70127
70139
70126
70133
70145
70150
70183
70188
70185
70216
70211
70203
70220
70247
70210
70140
70038
70010
69982
69956
69952
69993
69995
70019
70049
70086
70115
70139
70143
70151
70153
70155
70138
70157
70157
70161
70184
70175
70211
70193
70215
70208
70238
70230
70212
70112
70053
69969
69967
69940
69943
69968
69963
69988
70014
70042
70057
70101
70119
70138
70120
70131
70133
70138
70138
70154
70170
70166
70187
70193
70199
70204
70253
70235
70225
70172
70076
70003
69972
69951
69942
69944
69973
69979
69988
70029
70065
70095
70100
70119
70119
70131
70123
70111
70117
70126
70131
70134
70145
70166
70161
70176
70187
70202
