71413
71058
71096
71117
71124
71134
71117
71144
71163
71159
71125
71037
70925
70833
70768
70764
70747
70766
70749
70763
70776
70772
70825
70849
70891
70874
70882
70908
70928
70930
70957
71027
71098
71177
71266
71312
71317
71309
71309
71292
71305
71294
71274
71288
71283
71305
71309
71327
71340
71366
71356
71367
71401
71394
71423
55883
55848
55850
55908
55955
56002
56020
56028
55966
55951
55918
55860
55809
55778
55773
55748
55773
55783
55746
55708
55692
55685
55660
55661
55655
55631
55637
55629
55587
55599
55564
55543
71569
71576
71635
71720
71746
71750
71758
71771
71761
71744
71700
71600
71487
71439
71394
71395
71399
71413
55771
55729
55724
55712
55685
55680
55646
55650
55653
55640
55638
55620
55612
55594
55577
55539
55530
55526
55513
55537
55555
55589
55591
55628
55660
55695
55703
55704
55763
55815
55891
55937
71626
71629
71642
71668
71690
71702
71686
71685
71725
71747
71757
71751
71758
71740
71746
71713
71725
55807
55732
55688
55659
55667
55677
55662
55635
55632
55621
55625
55631
55612
55613
55670
55754
55847
55892
55936
55964
55957
55942
55939
55926
55922
55877
55835
55808
55785
55763
55746
55688
55662
71992
72023
72079
72124
72166
72225
72270
72346
72401
72432
72449
72500
72541
72583
72608
72598
72538
72453
72360
72306
72291
72281
72284
72280
72297
72274
72250
72253
72226
72136
72070
72027
72027
72031
72018
72042
72050
72028
72066
72092
72127
72161
72180
72164
72188
72207
72228
72234
72144
71965
71733
71618
71575
71606
71643
71605
71603
71625
71645
71682
71729
71748
71790
71790
71804
71822
71847
71850
72094
72734
73660
75870
76574
74917
74582
73872
74110
74127
74032
72564
71769
71650
71766
71536
71642
71790
72863
73243
73037
72986
72971
72948
72931
72960
72970
72964
72986
73034
73065
73070
73108
73107
73147
73200
73099
73140
73101
73059
73048
73061
73040
73090
73119
73036
72960
72887
72813
72687
72467
72366
72406
72633
72803
72852
72885
72850
72822
72797
72758
72674
72691
72799
72959
73003
73081
73139
73188
73224
73258
73247
73281
73257
73166
73062
72966
72887
72848
72823
72839
72815
72834
72831
72869
72885
72919
72955
72958
72864
72748
72675
72520
72189
71849
71330
70618
70460
70687
70904
71038
71323
71645
72150
72479
72645
72619
72624
72603
72620
72661
72748
72752
72751
72785
72845
72863
72880
72888
72902
72889
72903
72904
72954
72955
72979
73013
73048
73082
73092
73159
73201
73239
73247
73203
73115
72996
72966
72951
72946
72924
72922
72941
72989
73144
73204
73246
73265
73264
73273
73273
73300
73311
73312
73262
73235
73237
73254
73272
73312
73422
73549
73599
73582
73470
73344
73284
73226
73182
73222
73239
73222
73176
73190
73191
73153
73110
72977
72566
72302
72260
72272
72323
72357
72453
72499
72566
72511
72911
74472
74560
74706
74628
74220
74108
74155
74103
74161
74246
74314
74315
74416
74685
75165
75189
74824
74476
75455
77324
77664
77784
77783
77741
77577
77473
77360
76916
76336
74237
75239
75540
75630
75643
75999
76012
76014
76151
76290
76249
76248
76329
76395
76585
76327
76147
75744
75166
74656
74877
75098
75204
75291
75352
75364
75427
75431
75413
75407
75388
75340
75217
75086
74894
74800
74749
74718
74705
74672
74643
74649
74688
74680
74694
74726
74823
74909
75035
75181
75341
75515
75711
75858
75936
76008
76090
76132
76143
76137
76052
76004
75950
75926
75929
75947
75978
75999
76003
76019
76059
76077
76115
76118
76099
76125
76142
76129
76163
76155
76187
76212
76249
76255
76286
76293
76324
76289
76223
76145
76060
76035
76039
76038
76047
76064
76081
76126
76144
76148
76143
76139
76146
76143
76213
76227
76268
76268
76286
76304
76329
76337
76337
76372
76381
76395
76427
76430
76393
76339
76216
76139
76091
76080
76049
76074
76089
76106
76123
76140
76152
76153
76172
76162
75535
75416
75385
75348
75325
75339
75330
75353
75357
75348
75373
75372
75394
75417
75425
75447
75473
75473
75504
75515
75555
75565
75547
75492
75364
75282
75210
75217
75202
75206
75227
75236
75251
75266
75288
75288
75278
75277
75296
75281
75309
75321
75334
75353
75353
75387
75393
75389
75433
75429
75442
75458
75480
75498
75518
75545
75546
75566
75576
75595
75622
75627
75553
75455
75365
75336
75335
75339
75342
75357
75370
75377
75400
75428
75453
75450
75471
75424
75393
75329
75264
75201
75074
74974
74997
74970
75003
75061
75025
74975
74859
74711
74487
74376
74325
74227
74184
74066
74050
74016
73964
73891
73787
73674
73608
73560
73517
73495
73431
73538
73764
74047
74262
74213
74405
74530
74717
74854
74997
75125
75159
75176
75102
75070
75080
75088
75112
75151
75127
75197
75274
75440
75585
75746
75820
75900
75946
75925
75863
75716
75613
75515
75410
75394
75346
75314
75292
75307
75291
75300
75304
75300
75307
75312
75337
75343
75344
75357
75396
75415
75427
75446
75504
75502
75513
75548
75526
75543
75533
75583
75573
75595
75619
75645
75666
75670
75691
75646
75608
75482
75360
75291
75251
75244
75218
75208
75210
75218
75186
75182
75172
75192
75182
75145
75189
75157
75170
75168
75164
75165
75164
75180
75184
75198
75238
75274
75270
75266
75288
75245
75298
75215
75096
74983
74886
74833
74814
74754
74727
74680
74660
74662
74677
74695
74706
74691
74686
74653
74617
74557
74544
74516
74524
74528
74522
74544
74548
74546
74552
74572
74555
74599
74625
74594
74532
74440
74356
74329
74303
74255
74233
74215
74203
74205
74279
74323
74367
74343
74314
74256
74212
74157
74123
74150
74127
74147
74183
74178
74151
74184
74253
74305
74361
74441
74429
74368
74226
74070
73997
73996
74007
74050
74032
74061
74079
74113
74152
74167
74186
74170
74178
74157
74182
74208
74232
74197
74251
74286
74326
74367
74477
74634
74742
74900
74972
74961
74934
74930
74930
74936
74940
74951
74950
74941
74965
74927
74961
74977
75001
74998
74981
74978
74958
74977
74983
74993
75016
75042
75058
75075
75091
75100
75125
75153
75086
74957
74851
74796
74781
74800
74794
74836
74854
74823
74761
74799
74834
74864
74880
74904
74897
74897
74900
74910
74918
74925
74958
74990
75031
75065
75061
75097
75073
74952
74915
74934
74938
74971
75536
78144
76832
72405
74919
74285
75766
76053
75823
75655
75138
74820
74751
74771
74793
74791
74758
74738
74688
74676
74640
74645
74631
74614
74629
74658
74633
74571
74488
74452
74464
74515
74525
74550
74547
74561
74580
74615
74641
74678
74680
74711
74723
74732
74752
74753
74718
74723
74610
74471
74110
73335
72784
73157
73413
74975
74360
74224
74054
76109
76008
75925
74665
77066
76549
77298
74366
76063
76415
74084
73800
73534
73696
74072
75276
76017
76463
77582
76570
77952
77474
77389
77138
77076
77166
77389
77060
77053
77329
77632
77837
78063
77483
77445
77565
77786
77661
77761
77654
77580
77831
78123
78091
78029
77820
77431
77332
77211
77341
77373
77223
77171
77049
77079
77188
77234
77227
77224
77177
77167
77227
77256
77310
77366
77432
77552
77614
77644
77738
77772
77787
77794
77801
77810
77835
77831
77846
77857
77869
77893
77892
77916
77915
77890
77832
77770
77754
77703
77727
77739
77749
77762
77793
77811
77829
77831
77876
77921
77950
77981
78023
78071
78118
78138
78184
78183
78238
78289
78312
78290
78335
78352
78367
78353
78385
78398
78422
78398
78329
78276
78244
78244
78241
78265
78287
78316
78337
78355
78409
78446
78466
78492
78507
78540
78534
78560
78587
78584
78608
78607
78606
78593
78584
78591
78578
78593
78588
78575
78600
78594
78618
78619
78585
78558
78450
78382
78294
78293
78285
78282
78278
78278
78267
78260
78270
78291
78317
78304
78307
78300
78283
78293
78303
78322
78326
78354
78349
78332
78311
78263
78252
78271
78293
78332
78394
78435
78437
78412
78328
78240
78188
78169
78155
78134
78137
78088
78075
78068
78017
78012
78026
78022
78002
77974
77995
78012
78038
78059
78080
78116
78124
78158
78136
78150
78186
78214
78204
78221
78269
78245
78274
78221
78161
78092
78007
77995
77956
77974
77971
77974
77976
77970
77987
78026
78049
78060
78062
78090
78082
78082
78082
78114
78119
78102
78147
78140
78148
78170
78166
78188
78187
78175
78181
78154
78135
78141
78145
78123
78138
78150
78167
78155
78194
78232
78204
78158
78093
78023
77967
77961
77951
77933
77966
77989
77983
78005
78032
78031
78068
78065
78099
78101
78085
78122
78122
78141
78135
78166
78208
78202
78215
78232
78240
78259
78262
78282
78285
78275
78310
78351
78361
78410
78438
78472
78481
78509
78533
78520
78486
78415
78332
78311
78253
78263
78253
78229
78244
78261
78242
78233
78242
78259
78253
78237
78245
78222
78225
78245
78215
78214
78211
78220
78213
78239
78242
78259
78247
78224
78251
78236
78242
78261
78239
78227
78246
78233
78243
78243
78199
78125
78057
77999
77952
77931
77934
77940
77947
77935
77955
77956
77959
77979
77977
77966
77965
77957
77980
77986
78011
78024
78025
78053
78059
78070
78055
78064
78082
78093
78095
78106
78128
78144
78158
78144
78095
78004
77949
77923
77888
77862
77860
77861
77860
77866
77863
77888
77904
77914
77919
77909
77909
77882
77886
77908
77915
77925
77929
77933
77947
77943
77966
77989
77981
77977
78015
77991
78022
77986
77921
77830
77776
77695
77682
77692
77692
77717
77720
77744
77792
77824
77835
77856
77851
77800
77752
77705
77674
77646
77635
77619
77603
77594
77589
77587
77594
77621
77611
77630
77630
77620
77636
77640
77638
77624
77538
77414
77315
77256
77230
77188
77164
77152
77133
77107
77090
77106
77127
77131
77125
77115
77133
77121
77121
77109
77140
77144
77133
77119
77152
77181
77166
77172
77181
77218
77226
77220
77231
77264
77311
77325
77343
77352
77365
77392
77405
77393
77409
77418
77421
77450
77457
77477
77470
77513
77522
77544
77567
77561
77578
77545
77453
77337
77233
77149
77137
77117
77106
77111
77104
77120
77117
77115
77146
77178
77208
77233
77229
77217
77216
77223
77265
77273
77297
77294
77320
77334
77338
77390
77395
77408
77426
77472
77497
77541
77573
77598
77618
77633
77659
77700
77713
77740
77774
77796
77816
77844
77869
77873
77888
77912
77922
77915
77843
77748
77659
77601
77575
77550
77538
77547
77545
77543
77539
77551
77603
77622
77643
77656
77679
77666
77656
77646
77660
77674
77691
77681
77712
77712
77732
77750
77752
77767
77765
77770
77796
77800
77829
77826
77836
77853
77865
77882
77885
77891
77902
77907
77925
77942
77943
77962
77916
77830
77754
77695
77646
77653
77649
77650
77658
77644
77658
77670
77665
77691
77707
77713
77705
77699
77691
77685
77720
77726
77747
77749
77765
77770
77787
77794
77806
77806
77834
77810
77808
77849
77828
77859
77853
77888
77897
77911
77890
77938
77929
77910
77842
77762
77706
77659
77633
77642
77622
77632
77648
77657
77648
77678
77707
77732
77722
77760
77764
77765
77808
77805
77812
77828
77839
77831
77860
77857
77851
77879
77881
77886
77893
77886
77885
77888
77909
77885
77895
77882
77902
77911
77921
77907
77849
77745
77672
77617
77600
77584
77577
77570
77579
77580
77598
77591
77618
77636
77656
77649
77643
77644
77659
77655
77672
77699
77709
77723
77721
77728
77758
77754
77769
77770
77799
77796
77818
77824
77847
77858
77837
77859
77871
77862
77871
77867
77886
77895
77909
77914
77913
77920
77924
77935
77912
77814
77684
77611
77551
77506
77499
77490
77488
77470
77475
77474
77488
77496
77510
77511
77519
77499
77493
77496
77480
77473
77477
77485
77480
77469
77470
77479
77503
77488
77507
77518
77526
77515
77528
77521
77530
77553
77540
77559
77563
77569
77578
77568
77603
77608
77629
77630
77655
77658
77650
77576
77470
77350
77271
77241
77213
77241
77253
77253
77245
77254
77255
77262
77302
77349
77351
77351
77356
77358
77365
77376
77379
77370
77382
77400
77432
77428
77454
77490
77500
77503
77519
77544
77571
77572
77587
77598
77613
77624
77642
77636
77677
77691
77714
77711
77652
77544
77453
77385
77343
77328
77332
77329
77322
77358
77346
77353
77386
77384
77414
77405
77412
77407
77402
77425
77437
77445
77429
77449
77480
77474
77502
77501
77532
77549
77550
77572
77572
77592
77613
77613
77626
77651
77653
77659
77610
77482
77392
77322
77273
77255
77273
77248
77254
77263
77266
77279
77311
77324
77331
77323
77325
77320
77327
77322
77334
77350
77364
77374
77385
77398
77426
77411
77427
77446
77461
77489
77491
77490
77503
77504
77521
77537
77504
77419
77324
77210
77158
77140
77121
77106
77104
77090
77082
77109
77109
77129
77151
77174
77192
77187
77195
77193
77183
77211
77231
77243
77250
77255
77273
77294
77323
77292
77333
77341
77363
77383
77424
77483
77533
77545
77588
77671
77683
77729
77743
77781
77782
77799
77707
77575
77445
77318
77245
77211
77197
77197
77210
77220
77198
77219
77235
77282
77313
77315
77340
77364
77395
77370
77345
77288
77232
77176
77146
77195
77339
77325
77272
77160
76852
76606
76354
76219
76165
76075
75958
75913
75935
75803
75590
75165
74664
74492
74312
74111
74183
74629
74817
74887
75225
75150
75038
74958
74921
74978
75103
75529
77086
77918
78014
78316
77027
77403
76620
75314
73733
70944
71845
71781
72278
73574
72725
73992
73861
74435
74755
75219
75180
75133
75126
75174
75175
75180
75240
75261
75302
75341
75377
75375
75399
75444
75487
75527
75572
75592
75518
75447
75372
75335
75335
75331
75308
75314
75292
75295
75280
75277
75277
75294
75309
75312
75330
75315
75325
75299
75300
75331
75333
75354
75365
75371
75394
75416
75413
75440
75447
75452
75445
75457
75474
75477
75456
75385
75292
75246
75200
75172
75169
75167
75167
75163
75163
75165
75176
75193
75203
75192
75215
75192
75158
75189
75202
75174
75180
75184
75170
75172
75158
75194
75200
75194
75210
75225
75241
75250
75259
75278
75297
75178
75108
75049
75025
74962
74943
74906
74938
74955
74979
74993
75011
75057
75081
75154
75227
75266
75275
75293
75336
75320
75334
75399
75433
75461
75512
75549
75616
75662
75734
75756
75825
75863
75917
75988
76040
76087
76110
76143
76202
76271
76329
76322
76252
76193
76159
76139
76150
76183
76211
76213
76245
76250
76273
76316
76329
76377
76415
76425
76437
76458
76468
76482
76508
76550
76576
76608
76620
76646
76677
76694
76724
76766
76781
76825
76845
76928
76926
76964
77005
77046
77072
77099
77096
77131
77165
77168
77183
77226
77240
77267
77285
77320
77343
77367
77396
77417
77392
77327
77210
77145
77078
77053
77067
77048
77045
77046
77044
77054
77058
77070
77094
77139
77141
77125
77122
77128
77128
77121
77132
77148
77172
77155
77183
77175
77181
77200
77202
77219
77228
77250
77258
77275
77297
77336
77352
77375
77387
77409
77431
77437
77479
77479
77514
77531
77519
77553
77566
77593
77612
77634
77631
77610
77537
77417
77335
77263
77244
77204
77207
77202
77210
77209
77187
77189
77189
77192
77211
77178
77190
77142
77136
77118
77107
77103
77080
77085
77080
77092
77087
77070
77095
77104
77124
77148
77160
77181
77195
77213
77214
77241
77258
77269
77287
77289
77302
77310
77305
77302
77337
77338
77342
77301
77191
77077
76989
76923
76896
76863
76878
76864
76877
76859
76854
76863
76880
76887
76893
76905
76882
76870
76870
76873
76877
76880
76878
76887
76906
76906
76946
76934
76964
76968
76979
77020
77017
77028
77054
77046
77048
77065
77097
77092
77109
77133
77098
77006
76887
76787
76724
76675
76659
76646
76634
76643
76637
76625
76638
76651
76667
76678
76689
76674
76650
76663
76649
76654
76679
76674
76683
76682
76703
76707
76744
76770
76789
76782
76812
76812
76844
76849
76869
76891
76880
76881
76873
76917
76906
76917
76935
76872
76809
76697
76604
76546
76521
76534
76550
76580
76589
76593
76601
76601
76594
76606
76609
76612
76633
76628
76608
76603
76588
76584
76572
76582
76569
76593
76609
76597
76637
76661
76658
76671
76684
76702
76705
76702
76706
76724
76708
76726
76733
76733
76721
76724
76750
76765
76769
76772
76784
76801
76799
76751
76637
76539
76454
76415
76374
76380
76370
76393
76393
76421
76411
76424
76413
76379
76344
76298
76336
76344
76355
76354
76358
76366
76358
76398
76404
76410
76428
76441
76432
76436
76470
76515
76541
76606
76648
76620
76584
76543
76497
76468
76442
76418
76406
76405
76384
76395
76397
76386
76398
76335
76234
76115
76059
76017
75998
76006
75992
76002
75987
75977
75994
75998
76007
76030
76024
75992
75963
75944
75943
75943
75934
75947
75962
75969
75960
75970
75981
75994
75986
75980
76000
76019
76027
76022
76048
76046
76040
76033
76069
76058
76056
76000
75907
75818
75789
75759
75741
75719
75742
75741
75739
75739
75769
75784
75813
75806
75812
75783
75774
75771
75780
75768
75789
75779
75812
75799
75806
75819
75835
75849
75847
75863
75866
75880
75910
75903
75935
75903
75941
75950
75963
75943
75822
75734
75676
75626
75620
75592
75593
75585
75610
75585
75586
75580
75606
75636
75647
75656
75630
75621
75640
75647
75645
75643
75665
75684
75695
75702
75740
75744
75762
75765
75778
75804
75794
75829
75847
75857
75865
75874
75891
75887
75895
75918
75918
75926
75962
75943
75965
75970
75977
75987
75995
76003
76006
75955
75850
75745
75688
75656
75636
75629
75629
75639
75628
75636
75655
75661
75685
75692
75695
75698
75685
75694
75699
75712
75722
75718
75730
75728
75749
75772
75778
75801
75821
75812
75849
75828
75854
75861
75880
75897
75909
75936
75953
75965
75964
75988
76001
76000
76024
76044
76062
76050
76077
76095
76086
76105
76120
76114
76079
75982
75880
75817
75783
75772
75760
75756
75764
75777
75762
75771
75787
75794
75811
75828
75824
75818
75817
75811
75825
75828
75840
75830
75862
75851
75863
75855
75880
75887
75910
75915
75937
75924
75936
75942
75948
75938
75946
75959
75954
75951
75989
76001
75997
75990
76002
75997
76029
75994
75925
75843
75761
75718
75709
75719
75743
75736
75729
75742
75748
75735
75760
75773
75788
75787
75785
75776
75766
75762
75773
75788
75776
75788
75787
75794
75815
75841
75847
75842
75872
75870
75894
75897
75893
75903
75939
75931
75940
75955
75957
75956
75965
76003
75756
75770
75814
75804
75700
75614
75564
75512
75499
75491
75463
75458
75461
75458
75436
75464
75469
75473
75508
75459
75479
75490
75468
75484
75477
75490
75502
75499
75504
75521
75539
75539
75556
75577
75588
75588
75592
75614
75649
75656
75656
75680
75680
75704
75697
75716
75729
75747
75757
75765
75763
75781
75789
75798
75806
75826
75836
75828
75782
75710
75606
75517
75489
75478
75487
75480
75465
75479
75462
75474
75475
75473
75486
75512
75513
75501
75477
75498
75497
75491
75490
75516
75505
75518
75526
75541
75556
75554
75569
75576
75588
75602
75636
75619
75631
62798
75658
75658
75666
75677
75691
75719
75714
75716
75724
75734
75754
75753
75769
75757
75732
75659
75553
75477
75427
75414
75432
75420
75423
75422
75434
75452
75443
75477
75487
75507
75514
75516
75497
75486
75509
75525
75524
75534
75535
75544
75564
75566
75554
75582
75625
75616
75633
75627
75648
75671
75663
75688
75685
75701
75698
75706
75720
75721
75731
75743
75779
75734
75649
75575
75494
75455
75447
75437
75446
75447
75450
75469
75463
75466
75508
75504
75517
75542
75532
75532
75510
75508
75514
75535
75550
75539
75564
75579
75598
75612
75625
75633
75643
75662
75645
75659
75697
75696
75733
75725
75751
75751
75753
75768
75773
75777
75790
75795
75822
75820
75779
75705
75594
75530
75520
75508
75508
75498
75514
75520
75518
75496
75536
75545
75566
75577
75565
75561
75569
75573
75593
75581
75614
75582
75621
75637
75636
75655
75651
75660
75671
75689
75713
75731
75726
75751
75751
75773
75795
75795
75829
75828
75836
75840
75869
75897
75884
75877
75904
75918
75901
75917
75950
75941
75929
75905
75802
75708
75650
75601
75589
75596
75599
75587
75582
75593
75589
75583
75611
75615
75654
75635
75654
75629
75636
75631
75637
75650
75655
75660
75673
75693
75688
75701
75723
75757
75766
75764
75773
75795
75799
75820
75815
75868
75862
75888
75881
75881
75903
75922
75917
75919
75936
75937
75958
75975
75974
75958
75927
75847
75775
75698
75653
75635
75624
75607
75606
75612
75630
75631
75626
75650
75665
75675
75685
75658
75666
75671
75666
75665
75665
75692
75671
75667
75699
75692
75722
75706
75724
75741
75756
75763
75752
75781
75782
75791
75786
75795
75797
75824
75825
75842
75836
75850
75850
75853
75779
75685
75600
75554
75534
75512
75513
75524
75532
75538
75545
75529
75547
75580
75576
75579
75579
75570
75555
75566
75568
75581
75581
75591
75621
75606
75605
75641
75636
75662
75665
75682
75688
75710
75713
75728
75726
75735
75772
75773
75759
75793
75794
75796
75792
75824
75808
75784
75698
75602
75524
75485
75436
75463
75429
75416
75461
75456
75450
75444
75447
75496
75483
75503
75493
75489
75507
75516
75492
75504
75513
75538
75527
75545
75573
75576
75584
75591
75612
75619
75644
75637
75661
75683
75696
75697
75713
75724
75729
75733
75756
75766
75785
75804
75806
75819
75833
75821
75855
75863
75863
75855
75783
75689
75579
75537
75535
75519
75513
75522
75523
75513
75531
75530
75538
75558
75598
75554
75589
75573
75584
75564
75577
75576
75587
75596
75606
75610
75636
75630
75645
75677
75683
75710
75692
75711
75728
75727
75761
75766
75780
75789
75814
75816
75836
75842
75856
75856
75860
75883
75888
75904
75899
75919
75855
75786
75698
75623
75607
75597
75611
75604
75593
75614
75622
75635
75648
75655
75684
75693
75713
75696
75679
75684
75721
75704
75734
75722
75723
75736
75745
75746
75787
75771
75809
75811
75849
75845
75843
75875
75872
75908
75899
75901
75914
75934
75930
75942
75955
75951
75913
75810
75719
75671
75646
75641
75626
75638
75647
75657
75645
75654
75685
75707
75723
75701
75713
75703
75679
75693
75710
75702
75712
75714
75719
75723
75740
75765
75747
75778
75791
75798
75826
75814
75845
75844
75853
75865
75878
75903
75907
75892
75908
75887
75836
75815
75787
75788
75794
75732
75655
75539
75506
75468
75446
75457
75450
75461
75455
75438
75430
75460
75473
75489
75493
75494
75493
75485
75455
75474
75472
75496
75492
75521
75511
75511
75506
75507
75508
75497
75513
75523
75539
75558
75577
75577
75615
75627
75637
75638
75675
75694
75697
75719
75727
75747
75752
75752
75764
75778
75784
75796
75800
75794
75699
75580
75500
75458
75407
75380
75377
75360
75389
75380
75366
75377
75382
75392
75414
75410
75415
75401
75405
75400
75399
75406
75413
75417
75417
75422
75461
75456
75458
75441
75442
75440
75424
75413
75428
75439
75447
75458
75478
75475
75498
75535
75525
75549
75556
75566
75567
75583
75601
75591
75628
75604
75512
75401
75303
75253
75226
75206
75204
75199
75217
75226
75252
75276
75291
75332
75352
75368
75370
75342
75363
75351
75378
75382
75404
75410
75405
75423
75438
75457
75465
75487
75491
75496
75512
75520
75535
75547
75565
75597
75585
75614
75625
75625
75661
75669
75683
75694
75708
75658
75569
75479
75438
75396
75410
75401
75422
75427
75420
75447
75435
75455
75467
75500
75528
75531
75529
75548
75545
75547
75545
75553
75554
75573
75611
75616
75628
75636
75648
75651
75677
75692
75708
75717
75744
75754
75761
75784
75782
75804
75812
75818
75845
75846
75865
75877
75899
75911
75926
75943
75951
75958
75966
75879
75798
75708
75641
75609
75598
75616
75610
75613
75604
75599
75605
75624
75649
75658
75677
75663
75685
75681
75678
75665
75669
75692
75702
75715
75720
75752
75757
75768
75778
75791
75795
75810
75818
75832
75860
75865
75894
75889
75942
75901
75944
75947
75956
75967
75965
75980
75980
75973
75990
75993
76012
76008
75969
75862
75761
75712
75693
75655
75652
75652
75661
75663
75663
75653
75665
75695
75701
75726
75718
75697
75713
75708
75687
75707
75722
75719
75742
75723
75719
75729
75735
75762
75769
75775
75781
75790
75791
75817
75812
75836
75845
75861
75865
75868
75884
75872
75885
75880
75890
75907
75902
75898
75850
75740
75682
75605
75555
75572
75557
75558
75558
75575
75580
75569
75605
75629
75627
75652
75653
75639
75617
75634
75627
75613
75634
75640
75645
75642
75643
75664
75692
75699
75705
75701
75715
75716
75755
75766
75762
75772
75783
75773
75807
75811
75827
75821
75768
75663
75577
75515
75508
75495
75511
75483
75499
75503
75503
75509
75548
75550
75577
75569
75580
75557
75561
75568
75571
75574
75583
75605
75595
75621
75638
75633
75639
75665
75675
75680
75700
75706
75722
75739
75749
75757
75755
75779
75790
75806
75821
75797
75721
75614
75525
75472
75452
75441
75438
75446
75432
75443
75446
75439
75450
75470
75489
75487
75522
75501
75504
75522
75510
75498
75529
75536
75557
75562
75591
75596
75597
75616
75634
75641
75669
75685
75695
75709
75727
75735
75762
75761
75769
75799
75823
75828
75814
75843
75858
75875
75880
75895
75925
75927
75942
75940
75977
75986
75954
75860
75760
75678
75628
75614
75589
75591
75603
75618
75611
75614
75619
75643
75663
75676
75681
75682
75699
75697
75698
75701
75704
75715
75748
75730
75755
75767
75774
75798
75790
75825
75826
75850
75862
75885
75907
75921
75935
75951
75960
75986
75992
75999
76017
76030
76031
76038
76045
76039
76056
76079
76086
76102
76033
75953
75846
75785
75724
75704
75693
75697
75697
75708
75712
75724
75752
75760
75788
75807
75823
75794
75782
75784
75801
75798
75801
75819
75838
75843
75842
75838
75870
75896
75918
75927
75951
75941
75970
75955
75963
75954
75954
75960
75957
75962
75967
75984
75982
76024
76036
76031
75999
75906
75822
75747
75725
75704
75724
75726
75720
75728
75726
75740
75740
75758
75806
75820
75814
75795
75765
75752
75744
75739
75761
75761
75788
75803
75805
75838
75839
75855
75886
75902
75890
75917
75933
75943
75944
75969
75967
75982
75965
75994
76012
76012
76013
75984
75898
75772
75697
75609
75605
75591
75567
75550
75570
75573
75588
75598
75600
75644
75655
75647
75664
75669
75638
75647
75647
75661
75672
75699
75713
75699
75720
75739
75738
75763
75784
75808
75814
75831
75854
75850
75887
75888
75915
75945
75951
75966
75983
75976
75984
75991
76009
76014
76025
76025
75998
75902
75788
75722
75673
75644
75631
75632
75623
75632
75642
75628
75639
75653
75660
75682
75694
75687
75702
75680
75702
75688
75696
75710
75710
75739
75731
75707
75742
75749
75770
75772
75778
75813
75819
75810
75827
75843
75867
75872
75890
75901
75921
75923
75939
75945
75969
75984
75982
75998
76001
76021
76019
75995
75913
75797
75720
75681
75661
75633
75633
75640
75632
75630
75641
75673
75667
75691
75716
75714
75714
75685
75696
75698
75707
75701
75713
75723
75740
75744
75751
75777
75784
75797
75838
75836
75840
75859
75855
75886
75905
75902
75918
75925
75946
75946
75956
75965
75982
75979
75979
76000
75966
75890
75777
75706
75651
75641
75638
75647
75662
75687
75670
75666
75694
75710
75739
75769
75769
75771
75764
75757
75772
75758
75787
75798
75807
75808
75827
75837
75858
75855
75864
75874
75892
75896
75927
75919
75946
75966
75965
75975
75989
75993
76023
76019
76037
76048
76046
76016
75911
75814
75743
75708
75680
75683
75689
75692
75708
75690
75713
75725
75752
75777
75790
75791
75800
75779
75789
75782
75805
75806
75821
75808
75840
75850
75859
75860
75879
75907
75923
75933
75950
75943
75984
75999
75996
76020
76021
76023
76036
76073
76061
76067
76080
76087
76100
76119
76106
76104
76123
76042
75923
75819
75737
75728
75713
75716
75710
75696
75696
75729
75705
75722
75741
75740
75781
75772
75769
75752
75751
75755
75759
75747
75769
75760
75757
75756
75767
75766
75759
75793
75794
75793
75809
75811
75834
75852
75870
75893
75893
75913
75928
75926
75938
75943
75958
75959
75963
75971
75981
75965
75959
75914
75816
75706
75622
75605
75565
75562
75549
75562
75562
75582
75556
75579
75584
75610
75623
75623
75605
75615
75597
75599
75597
75607
75621
75615
75632
75649
75650
75677
75660
75678
75687
75709
75707
75726
75752
75756
75770
75781
75788
75801
75789
75802
75803
75826
75822
75820
75832
75744
75644
75579
75516
75469
75480
75501
75473
75480
75491
75503
75500
75527
75549
75559
75573
75558
75549
75556
75556
75546
75563
75572
75579
75585
75596
75604
75610
75634
75638
75655
75640
75672
75686
75700
75703
75709
75720
75724
75742
75756
75749
75719
75639
75536
75464
75424
75398
75412
75411
75414
75409
75432
75449
75436
75473
75507
75518
75518
75524
75516
75496
75485
75524
75555
75563
75581
75578
75594
75616
75616
75655
75663
75669
75683
75719
75721
75747
75760
75759
75759
75778
75779
75792
75820
75771
75669
75575
75495
75448
75437
75438
75453
75451
75456
75468
75453
75470
75484
75504
75496
75534
75552
75544
75537
75525
75528
75539
75578
75574
75618
75609
75627
75648
75668
75676
75683
75722
75719
75734
75746
75784
75774
75818
75826
75850
75866
75878
75889
75919
75914
75926
75926
75961
75957
75972
75902
75788
75700
75638
75612
75580
75589
75570
75601
75604
75573
75610
75597
75657
75655
75674
75671
75662
75666
75670
75672
75682
75709
75712
75733
75731
75764
75777
75766
75787
75807
75817
75847
75864
75876
75875
75897
75903
75929
75924
75974
75960
75973
75995
75980
75983
75993
76026
76008
76020
76004
75905
75821
75723
75681
75669
75654
75664
75648
75669
75665
75667
75688
75703
75706
75722
75735
75704
75700
75717
75715
75712
75728
75728
75729
75740
75751
75765
75764
75775
75793
75811
75828
75839
75842
75860
75855
75886
75893
75901
75903
75933
75909
75934
75949
75969
75956
75914
75814
75716
75659
75642
75644
75641
75644
75649
75660
75653
75664
75686
75706
75720
75722
75726
75702
75712
75725
75728
75749
75765
75755
75772
75791
75809
75792
75837
75848
75863
75881
75884
75925
75927
75933
75949
75955
75978
75985
75981
75970
75900
75798
75716
75672
75657
75658
75649
75659
75678
75692
75675
75686
75710
75736
75746
75753
75760
75742
75752
75766
75759
75779
75788
75812
75823
75828
75846
75887
75891
75895
75898
75935
75933
75956
75971
75978
76007
76012
76029
76021
76039
76041
76066
76079
76076
76094
76110
76118
76142
76100
76066
75953
75867
75803
75769
75767
75767
75788
75782
75794
75798
75789
75793
75824
75854
75860
75852
75856
75857
75870
75882
75870
75890
75893
75895
75936
75925
75950
75968
75980
75997
76015
76027
76024
76055
76073
76079
76093
76116
76118
76149
76146
76167
76178
76196
76213
76225
76221
76240
76265
76251
76279
76283
76281
76241
76155
76055
75982
75933
75934
75920
75933
75934
75917
75926
75927
75944
75963
75973
76015
75999
76009
75995
76006
75997
75994
75990
76010
76006
76026
76039
76035
76057
76060
76080
76084
76092
76117
76131
76139
76152
76153
76175
76185
76193
76214
76223
76226
76236
76245
76261
76255
76274
76263
76273
76226
76108
76042
76003
75947
75965
75953
75955
75973
75965
75991
75987
76006
76034
76046
76067
76061
76060
76069
76054
76058
76047
76061
76064
76085
76089
76105
76108
76137
76137
76151
76166
76188
76204
76199
76213
76220
76230
76231
76237
76272
76271
76292
76288
76307
76310
76266
76169
76093
76028
75990
75980
75958
75973
75975
76006
75997
76008
76024
76025
76072
76060
76077
76067
76067
76033
76065
76077
76074
76093
76091
76099
76132
76137
76148
76154
76159
76157
76199
76191
76211
76207
76208
76245
76242
76269
76273
76294
76300
76308
76302
76319
76323
76338
76330
76360
76350
76290
76185
76087
76025
76008
75966
75970
75963
75950
75955
75957
75954
75971
75988
75993
76013
76028
76019
76003
76004
75984
75993
75997
76015
76022
76039
76041
76045
76050
76054
76061
76082
76092
76113
76115
76129
76120
76145
76153
76167
76191
76197
76220
76233
76217
76238
76242
76254
76249
76279
76300
76297
76309
76255
76156
76052
75962
75935
75923
75900
75886
75896
75893
75892
75879
75905
75913
75925
75945
75949
75948
75952
75960
75957
75946
75922
75942
75965
75983
75974
75998
75990
75997
76017
76020
76030
76050
76047
76064
76072
76101
76096
76124
76127
76123
76139
76157
76144
76169
76169
76173
76170
76171
76180
76116
75998
75899
75844
75802
75794
75795
75809
75808
75817
75831
75835
75856
75896
75906
75894
75904
75888
75880
75872
75875
75889
75867
75885
75880
75913
75912
75929
75932
75933
75943
75960
75966
75980
76003
76008
76014
76020
76027
76039
76038
76055
76065
76058
76078
76074
76053
75975
75871
75797
75741
75729
75719
75707
75724
75726
75726
75726
75744
75765
75802
75821
75824
75794
75790
75783
75798
75809
75822
75840
75834
75841
75851
75865
75875
75884
75886
75898
75919
75941
75938
75941
75949
75971
75967
76005
76009
76023
76030
76038
76035
76063
76046
76076
76090
76101
76088
76059
75955
75832
75779
75758
75727
75719
75705
75723
75748
75735
75743
75730
75772
75792
75812
75810
75833
75815
75801
75811
75815
75831
75846
75862
75855
75890
75886
75899
75898
75939
75953
75941
75964
75973
75987
76006
75999
76035
76020
76031
76053
76066
76073
76082
76106
76109
76108
76116
76130
76144
76144
76110
76029
75894
75835
75781
75738
75737
75734
75751
75757
75726
75748
75747
75780
75778
75794
75795
75781
75805
75791
75810
75776
75809
75811
75817
75815
75819
75850
75855
75860
75866
75852
75890
75904
75913
75915
75937
75959
75965
75980
75984
76011
76010
76014
76023
76024
76041
76054
76062
76070
76083
76098
76016
75928
75807
75759
75697
75691
75688
75699
75700
75702
75706
75689
75698
75744
75728
75750
75740
75749
75744
75731
75750
75736
75760
75776
75776
75782
75795
75809
75820
75837
75839
75865
75874
75883
75892
75908
75921
75917
75939
75937
75937
75918
75935
75950
75960
75965
75954
75872
75764
75702
75619
75629
75605
75608
75609
75641
75634
75636
75654
75698
75724
75729
75727
75725
75770
75756
75748
75669
75483
75281
75105
75027
74986
74979
75060
75114
75143
75020
74873
74774
74687
74751
74810
74700
74630
74361
74151
73894
73683
73612
73528
73564
73678
73756
73772
73767
73796
73839
73984
74000
73957
73906
73851
73819
73733
73628
73549
73420
73311
73209
73101
72991
72994
73029
73051
73152
73247
73402
73551
73193
73260
73287
73362
73339
73406
73534
73612
73582
73433
73348
73327
73327
73384
73459
73536
73536
73608
73651
73671
73672
73578
73519
73408
73346
73368
73533
73601
73643
73632
73590
73560
73532
73545
73564
73608
73657
73712
73776
73818
73855
73870
73792
73649
73607
73546
73592
73710
73824
73913
73975
73966
73970
73961
73978
73982
74045
74073
74106
74132
74144
74198
74193
74251
74302
74352
74403
74417
74446
74488
74478
74516
74562
74575
74617
74627
74667
74674
74702
74689
74726
74760
74773
74716
74638
74563
74526
74490
74395
74289
74196
74167
74167
74057
74078
74119
74189
74269
74375
74434
74484
74573
74627
74676
74728
74762
74814
74875
74888
74893
74932
74914
74829
74844
74960
75063
75085
75074
75022
74976
74958
74915
74819
74803
74796
74823
74835
74895
74979
75027
75108
75161
75236
75272
75304
75300
75298
75341
75342
75340
75390
75571
75633
75643
75631
75651
75655
75641
75610
75597
75687
75668
75672
75632
75643
75631
75647
75652
75640
75542
75409
75385
75415
75460
75449
75460
75467
75493
75547
75592
75657
75697
75724
75753
75748
75608
75308
74912
74876
75024
75071
74899
74813
74705
74944
77177
77623
77648
78218
78912
78992
78165
77811
77621
77332
77265
77090
77003
76881
76768
76591
76408
76144
75803
75545
75302
75075
75016
75105
75339
75613
75914
76059
75176
74374
74231
74231
74340
74417
74769
75322
75755
75815
75644
75413
75137
75081
75022
74956
74941
74959
75075
74925
74700
74558
74615
74680
74767
74851
74917
75019
75140
75246
75383
75494
75526
75509
75380
75221
75110
74919
74846
74865
74911
74960
75049
75124
75174
75235
75354
75569
75784
75971
75706
75415
75368
75296
75346
75370
75333
75319
75291
75294
75302
75286
75272
75290
75292
75285
75323
75351
75430
75533
75657
75766
75829
75831
75819
75778
75818
75837
75840
75828
75800
75787
75807
75767
75782
75805
75872
75934
76001
76141
76284
76371
76465
76507
76520
76573
76565
76612
76627
76642
76628
76554
76464
76381
76313
76224
76182
76168
76219
76335
76446
76544
76595
76630
76665
76683
76729
76760
76803
76852
76838
76753
76523
76363
76299
76314
76379
76422
76503
76562
76595
76609
76658
76762
76828
76957
76945
76898
76857
76852
76874
76899
76930
76934
76909
76814
76772
76762
76766
76791
76827
76882
76951
77056
77179
77341
77394
77495
77560
77598
77620
77621
77602
77536
77333
77143
76950
76824
76844
76897
76960
77008
77080
77148
77217
77314
77393
77452
77534
77545
77528
77493
77452
77417
77330
77248
77181
77143
77139
77117
77158
77213
77295
77357
77427
77502
77472
77385
77295
77239
77227
77211
77217
77186
77171
77105
77034
77024
76987
77029
77071
77093
77207
77263
77336
77403
77453
77506
77502
77473
77351
77221
77057
76922
76864
76789
76748
76763
76754
76767
76836
76958
77023
77119
77173
77233
77272
77260
77221
77160
77140
77112
77070
77044
77022
76973
76983
76915
76915
76925
76948
76982
77050
77048
76982
76917
76860
76806
76765
76778
76795
76799
76797
76792
76785
76775
76770
76769
76797
76837
76911
76989
77079
77218
77312
77376
77369
77230
77083
76957
76888
76850
76785
76688
76618
76555
76541
76531
76599
76658
76715
76806
76911
77002
77106
77179
77192
77177
77113
77096
77095
77108
77117
77084
76960
76762
76616
76543
76529
76566
76613
76693
76771
76919
77015
77051
77069
77067
77016
76971
76960
76932
76883
76804
76749
76696
76654
76669
76654
76706
76748
76805
76871
76968
76966
76868
76704
76628
76571
76569
76532
76567
76539
76562
76509
76482
76423
76402
76377
76356
76380
76458
76536
76627
76709
76784
76839
76841
76697
76557
76406
76342
76279
76228
76204
76161
76138
76101
76104
76130
76160
76227
76344
76425
76552
76626
76675
76683
76668
76638
76608
76639
76620
76576
76499
76343
76222
76174
76179
76216
76247
76306
76356
76343
76345
76373
76405
76428
76471
76506
76514
76532
76536
76521
76473
76462
76471
76453
76462
76527
76551
76609
76641
76702
76668
76620
76579
76521
76492
76509
76592
76658
76724
76757
76751
76741
76670
76661
76610
76627
76629
76623
76683
76732
76801
76862
76947
77011
76896
76691
76524
76412
76375
76321
76278
76184
76159
76190
76205
76248
76283
76320
76368
76403
76446
76446
76458
76479
76479
76473
76458
76407
76275
76116
75989
75929
75891
75855
75877
75936
76011
76042
76085
76148
76252
76373
76503
76585
76641
76666
76593
76533
76528
76540
76529
76530
76477
76321
76165
76068
76056
76063
76060
76081
76117
76149
76214
76326
76361
76352
76352
76346
76364
76376
76353
76324
76291
76206
76072
75989
75947
75932
75931
75975
76068
76180
76256
76276
76305
76256
76204
76221
76267
76340
76437
76512
76585
76628
76660
76636
76565
76551
76547
76558
76553
76537
76607
76700
76852
76978
77063
76991
76859
76765
76705
76672
76700
76618
76554
76502
76468
76448
76473
76563
76638
76681
76697
76694
76643
76668
76742
76941
76978
77003
77010
76985
76907
76865
76779
76745
76663
76632
76620
76650
76674
76720
76757
76811
76857
76895
76950
77003
76995
76945
76896
76829
76814
76789
76797
76785
76726
76599
76439
76401
76394
76429
76474
76541
76591
76664
76724
76805
76828
76871
76817
76762
76691
76677
76667
76684
76685
76692
76680
76689
76691
76715
76725
76745
76739
76727
76754
76761
76719
76665
76621
76565
76569
76576
76602
76635
76622
76620
76608
76575
76577
76639
76661
76677
76707
76751
76816
76857
76858
76957
77049
77050
76907
76771
76676
76646
76607
76598
76618
76590
76576
76584
76637
76644
76687
76760
76800
76869
76936
77015
77058
77078
77033
76983
76957
76948
76968
76993
77027
76940
76754
76608
76509
76488
76446
76490
76540
76635
76767
76906
76998
77049
77047
76967
76912
76828
76790
76803
76826
76832
76806
76741
76720
76706
76708
76705
76733
76805
76855
76931
76999
76970
76817
76701
76625
76615
76623
76644
76667
76669
76629
76600
76531
76496
76506
76537
76588
76630
76707
76834
76983
77078
77177
77207
77155
77012
76818
76682
76555
76433
76345
76291
76210
76202
76154
76127
76193
76244
76356
76387
76511
76619
76708
76722
76681
76594
76542
76540
76565
76564
76527
76453
76293
76175
76097
76096
76064
76123
76175
76219
76290
76421
76511
76513
76512
76463
76418
76398
76376
76400
76360
76287
76251
76282
76310
76297
76288
76294
76333
76384
76461
76491
76489
76391
76289
76184
76153
76173
76221
76286
76321
76359
76351
76331
76296
76241
76238
76277
76331
76414
76529
76648
76717
76815
76938
76979
76976
76954
76863
76744
76615
76505
76441
76367
76319
76324
76344
76373
76384
76459
76527
76659
76786
76868
76912
76873
76841
76826
76819
76841
76831
76806
76780
76679
76624
76621
76636
76636
76591
76588
76578
76624
76680
76700
76724
76672
76636
76619
76605
76563
76507
76475
76407
76321
76286
76275
76331
76361
76342
76345
76351
76327
76257
76223
76175
76079
75925
75775
75681
75674
75643
75644
75680
75719
75775
75796
75854
75920
75989
76064
76138
76169
76242
76256
76316
76352
76329
76302
76304
76346
76423
76462
76413
76249
76097
75982
75951
75933
75940
76018
76072
76164
76235
76320
76369
76470
76487
76472
76447
76427
76450
76468
76506
76469
76450
76469
76474
76497
76537
76595
76651
76781
76883
76953
76903
76839
76777
76753
76753
76763
76822
76873
76927
76962
76971
76935
76871
76815
76703
76629
76654
76686
76776
76862
76998
77101
77184
77237
77217
77122
76953
76796
76713
76651
76625
76557
76492
76387
76301
76260
76361
76466
76564
76668
76770
76793
76809
76840
76869
76854
76810
76787
76765
76772
76824
76844
76789
76701
76605
76592
76596
76627
76655
76712
76771
76838
76910
76938
76977
76982
76954
76922
76885
76827
76863
76938
76968
77002
77075
77123
77114
77140
77157
77178
77243
77285
77293
77153
76977
76859
76771
76703
76663
76688
76703
76776
76817
76863
76826
76795
76775
76759
76782
76828
76840
76852
76902
76952
76990
77035
77062
77094
76995
76844
76696
76581
76535
76508
76463
76472
76440
76440
76497
76553
76589
76629
76676
76748
76806
76948
76994
77065
77092
77071
77013
76981
76936
76874
76727
76520
76364
76268
76199
76173
76167
76224
76295
76387
76501
76595
76696
76790
76807
76811
76778
76726
76718
76724
76713
76681
76684
76643
76627
76596
76587
76537
76507
76456
76364
76334
76331
76338
76407
76498
76533
76494
76490
76499
76542
76535
76540
76573
76581
76562
76577
76554
76538
76524
76567
76611
76683
76734
76784
76846
76890
76896
76805
76649
76504
76462
76437
76451
76490
76517
76524
76553
76552
76558
76579
76615
76646
76710
76770
76820
76848
76856
76885
76906
76911
76916
76950
76946
76880
76791
76690
76601
76579
76619
76632
76685
76756
76863
77004
77118
77242
77281
77321
77406
77435
77462
77455
77425
77431
77436
77460
77439
77289
77119
76985
76812
76740
76638
76617
76669
76671
76702
76773
76785
76840
76898
76930
76822
76660
76554
76555
76623
76781
76952
76394
77829
78886
79427
72750
70572
76847
78269
76855
76515
76264
75945
75458
75019
74671
74242
73843
73546
73267
73073
72921
72838
72745
72678
72568
72655
72796
72863
72992
73188
73470
73215
73316
73372
73418
73399
73397
73335
73256
73237
73197
73148
73147
73164
73223
73319
73403
73447
73491
73577
73760
73923
74022
74092
74060
73970
73842
73695
73588
73583
73550
73583
73592
73514
73378
73363
73451
73613
73706
73757
73816
73928
73971
74004
74068
74071
74098
74041
73953
73879
73867
73889
73893
74032
74144
74278
74380
74501
74602
74764
74695
74635
74595
74503
74429
74366
74283
73802
73735
73668
73679
73675
73668
73687
73711
73732
73703
73713
73740
73730
73751
73759
73793
73835
73920
74009
74106
74079
73962
73795
73660
73602
73593
73631
73664
73669
73670
73676
73643
73685
73727
73768
73819
73909
73959
74019
74091
74162
74249
74298
74323
74231
74045
73830
73633
73538
73506
73472
73443
73380
73363
73335
73326
73338
73346
73392
73480
73542
73605
73662
73724
73741
73696
73670
73661
73642
73647
73595
73496
73349
73237
73208
73206
73221
73275
73356
73425
73511
73592
73623
73725
73809
73854
73837
73781
73712
73669
73628
73645
73656
73680
73682
73701
73716
73676
73642
73664
73690
73722
73709
73669
73684
73688
73691
73693
73692
73740
73769
73804
73868
73894
73976
74061
74117
74137
74177
74233
74309
74402
74435
74454
74457
74488
74431
74341
74228
74162
74104
74164
74220
74287
74368
74464
74536
74555
74611
74639
74637
74585
74595
74502
74183
74022
73797
73841
74002
74188
73926
73693
73666
74045
74807
74790
74550
74672
74950
75251
74750
74160
73903
73754
73734
73623
73608
73627
73675
73733
73790
73817
73800
73772
73626
73476
73277
73077
72944
72848
72765
72732
72823
72978
73091
73159
73287
73466
73622
73776
73990
74218
74351
74402
74386
74320
74337
74371
74423
74555
74694
74854
74914
74883
74853
74743
74742
74649
74579
74501
74395
74342
74333
74339
74328
74265
74178
74113
74065
74140
74243
74275
74252
74308
74307
74271
74267
74246
74214
74096
73957
73830
73696
73438
73139
72998
72684
72371
72269
72150
72158
72336
72829
72743
72606
72631
72856
73131
73366
73712
73811
73664
73504
73607
73746
73794
73754
73725
73745
73889
74237
74816
75455
75871
76379
76911
77381
77643
77549
77446
77761
77836
77861
77892
77884
77937
79307
78977
78399
76793
72806
76437
70770
76315
77802
77848
77542
77481
77308
76957
77178
77254
76745
76240
75893
75873
75777
75650
75561
75251
75063
74622
74221
73849
73486
73224
73136
73001
72858
72756
72514
72390
72300
72225
72162
72141
72164
72157
72158
72113
72041
72003
71942
71915
71909
71905
71892
71876
71845
71844
71833
71820
71788
71795
71789
71804
71844
71964
72166
72298
72458
72583
72719
72809
72881
72907
72922
72986
73038
73054
73049
73082
73137
73097
73061
73071
73077
73081
73131
73206
73228
73134
73058
72981
72967
72940
72926
72937
73041
73237
73373
73470
73546
73630
73790
73893
73666
73574
73508
73443
73480
73502
73543
73612
73646
73694
73677
73631
73657
73718
73757
73829
73886
73880
73898
73954
74004
74131
74225
74297
74316
74283
74187
74183
74172
74138
74142
74158
74171
74177
74146
74087
74020
73948
73933
73920
73930
73932
73957
73977
74000
74010
74023
74029
74005
74011
74000
74022
74067
74060
74088
74106
74119
74163
74207
74239
74170
74139
74129
74141
74178
74184
74239
74279
74313
74371
74416
74474
74498
74540
74558
74588
74608
74645
74680
74688
74630
74542
74342
74316
74431
74572
74883
75160
74882
74288
73610
73886
74301
74434
74223
73847
73136
72737
72341
72712
72995
73149
73254
73239
73296
73267
73393
73579
73741
73905
74007
74068
74131
74174
74177
74186
74241
74257
74255
74251
74314
74353
74392
74479
74535
74528
74534
74535
74551
74646
74735
74745
74765
74797
74897
74915
74857
74783
74793
74740
74692
74650
74623
74543
74497
74407
74311
74247
74230
74186
74091
74104
73973
73883
73740
73663
73671
73770
73867
73961
74044
74059
73932
73776
73127
72363
73094
73408
74385
76326
75319
74510
74814
75430
75668
76078
76562
77453
77805
78071
77811
77265
77116
76528
76424
76186
76035
75921
75883
75815
75767
75766
75845
75883
75952
75992
76090
76218
76355
76598
76930
76981
76543
76346
75390
75690
75400
75340
74065
72317
71226
71791
73447
74439
75176
75576
75770
75844
75788
75943
75971
76153
76209
76265
76026
75892
75651
75450
75317
75215
75161
75117
75108
75127
75158
75180
75202
75220
75234
75246
75196
75073
74996
74929
74891
74890
74927
74945
75000
75044
75100
75154
75175
75099
74881
74645
74558
74479
74448
74480
74573
74614
74678
74824
74961
75074
75089
75040
75004
75023
75074
75176
75233
75294
75374
75403
75396
75399
75355
75211
75136
74987
74743
74647
75034
75206
75303
75376
75488
75571
75696
75758
75845
75890
75850
75837
75807
75854
75924
75969
76057
76142
76202
76255
76332
76416
76454
76501
76542
76585
76621
76603
76606
76628
76565
76502
76383
76307
76267
76109
76019
75939
75905
75863
75708
75425
75176
75071
74917
74783
74755
74805
74996
75161
75374
75574
75765
75887
75997
76074
76111
76151
76245
76326
76417
76416
76507
76587
76463
75768
75302
75117
75160
75109
75188
75374
75595
75767
75945
76064
76234
76393
76550
76613
76688
76821
76873
76927
77000
77089
77123
77142
77162
77206
77236
77283
77333
77360
77393
77450
77482
77501
77463
77377
77251
77200
77205
77220
77266
77294
77333
77395
77432
77472
77511
77548
77579
77565
77603
77576
77608
77591
77580
77608
77588
77602
77586
77611
77607
77638
77579
77539
77375
77279
77225
77210
77202
77209
77245
77244
77276
77306
77333
77378
77398
77405
77396
77398
77396
77429
77442
77461
77487
77499
77518
77555
77554
77569
77547
77466
77359
77230
77150
77126
77101
77105
77120
77123
77131
77159
77167
77176
77162
77151
77159
77189
77206
77219
77129
77037
76962
76931
76955
77001
77036
77045
77071
77078
76939
76775
76670
76628
76609
76584
76590
76611
76644
76677
76687
76728
76772
76811
76827
76849
76841
76856
76871
76877
76889
76883
76850
76867
76879
76883
76912
76947
76985
77030
77071
77075
77048
76938
76788
76654
76587
76527
76531
76535
76562
76584
76592
76646
76671
76690
76715
76759
76768
76791
76803
76838
76873
76916
76969
76975
77006
77028
77061
77100
77116
77149
77168
77206
77244
77261
77295
77299
77317
77353
77376
77421
77475
77477
77435
77325
77192
77093
77028
76990
76990
76990
76996
77008
77039
77036
77096
77116
77148
77179
77206
77198
77209
77220
77225
77244
77257
77278
77288
77286
77314
77335
77343
77349
77357
77388
77373
77413
77432
77443
77458
77462
77487
77491
77516
77518
77466
77329
77180
77111
77013
76999
76973
76966
76963
76970
76985
76985
77030
77041
77066
77089
77127
77108
77128
77143
77151
77171
77198
77217
77235
77241
77273
77303
77321
77326
77365
77356
77375
77394
77430
77424
77440
77458
77447
77408
77280
77143
77059
76982
76964
76952
76964
76944
77001
77024
77043
77072
77127
77128
77142
77126
77148
77150
77153
77171
77177
77193
77231
77262
77259
77279
77311
77326
77336
77370
77347
77380
77388
77410
77347
77252
77132
77028
76971
76906
76901
76924
76935
76918
76936
76977
77006
77032
77050
77056
77044
77031
77040
77052
77062
77066
77086
77094
77108
77141
77144
77159
77169
77178
77192
77214
77225
77225
77160
77055
76920
76834
76803
76778
76766
76790
76794
76790
76807
76814
76837
76852
76848
76845
76828
76805
76799
76800
76806
76829
76850
76876
76905
76905
76916
76944
76950
76997
77027
77041
77064
77026
76914
76759
76674
76604
76556
76558
76548
76549
76545
76541
76553
76592
76619
76630
76673
76631
76648
76624
76644
76655
76676
76680
76707
76711
76737
76762
76796
76784
76832
76836
76879
76893
76894
76936
76962
77001
77020
77038
77037
77081
77104
77113
77149
77182
77188
77126
76998
76839
76712
76650
76617
76591
76591
76576
76592
76606
76617
76630
76639
76650
76688
76684
76685
76715
76714
76711
76705
76731
76764
76773
76781
76806
76816
76847
76866
76878
76897
76922
76908
76939
76969
76971
77012
77017
77056
77076
77085
77098
77128
77149
77138
77036
76881
76717
76626
76588
76573
76546
76542
76549
76552
76532
76526
76530
76542
76544
76558
76498
76495
76519
76544
76573
76630
76630
76653
76675
76707
76737
76744
76757
76777
76803
76835
76867
76884
76909
76927
76961
76963
76953
76982
76989
77029
77063
77062
77093
77042
76934
76795
76709
76700
76671
76706
76709
76765
76794
76808
76867
76890
76888
76926
76916
76908
76907
76896
76922
76969
76995
77017
77032
77104
77114
77131
77149
77160
77168
77150
77160
77154
77163
77185
77166
77178
77192
77207
77218
77218
77182
77049
76920
76834
76768
76777
76790
76823
76872
76892
76925
76932
76982
77009
77022
77000
76966
76940
76923
76900
76915
76906
76928
76939
76936
76925
76928
76952
76937
76936
76942
76935
76955
76969
76983
76951
76944
76885
76787
76668
76558
76508
76484
76466
76510
76511
76540
76546
76557
76595
76616
76645
76644
76634
76650
76649
76663
76677
76709
76712
76730
76739
76746
76764
76779
76785
76792
76797
76807
76812
76814
76837
76841
76781
76659
76567
76485
76449
76406
76402
76389
76415
76428
76428
76435
76474
76490
76533
76544
76550
76558
76559
76577
76568
76594
76612
76616
76645
76661
76684
76708
76730
76729
76753
76760
76776
76808
76802
76829
76832
76857
76874
76859
76826
76696
76612
76537
76506
76495
76484
76496
76512
76510
76515
76531
76552
76582
76601
76601
76614
76611
76630
76624
76655
76662
76657
76699
76723
76728
76744
76761
76777
76803
76815
76816
76831
76842
76870
76867
76892
76910
76924
76930
76973
76982
76980
77007
77019
77036
76999
76942
76792
76697
76627
76595
53063
76583
76579
76587
76598
76608
76605
76634
76665
76687
76714
76697
76720
76723
76735
76746
76767
76763
76787
76824
76835
76828
76885
76894
76899
76939
76926
76943
76943
76975
76998
77023
77036
77062
77064
77078
77119
77107
77117
77155
77180
77185
77146
77044
76941
76867
76831
76804
76790
76774
76790
76816
76824
76838
76850
76875
76894
76916
76941
76929
76927
76943
76943
76954
76974
76990
77004
77041
77049
77072
77082
77088
77119
77144
77147
77156
77159
77177
77209
77223
77213
77248
77242
77258
77271
77273
77291
77295
77259
77169
77066
76994
76928
76914
76910
76920
76920
76920
76937
76944
76965
76969
77020
77021
77005
76977
76988
77005
77020
77031
77048
77035
77061
77062
77087
77097
77111
77128
77138
77130
77163
77175
77186
77191
77201
77214
77223
77250
77237
77213
77116
77007
76936
76882
76846
76850
76859
76861
76864
76863
76892
76906
76931
76960
76963
76961
76967
76968
76992
76986
77000
77020
77042
77028
77030
77040
77041
77036
77075
77057
77073
77063
77079
77088
77091
77094
77061
76989
76887
76794
76737
76726
76730
76719
76718
76710
76698
76712
76710
76711
76690
76723
76699
76689
76686
76687
76702
76708
76728
76730
76743
76771
76760
76774
76774
76784
76819
76857
76894
76916
76937
76944
76945
76904
76853
76712
76589
76497
76447
76442
76415
76399
76405
76397
76351
76373
76362
76376
76402
76413
76406
76402
76409
76393
76392
76399
76405
76410
76434
76443
76481
76495
76502
76534
76540
76527
76534
76525
76512
76512
76491
76476
76481
76497
76509
76556
76563
76550
76499
76376
76274
76250
76234
76239
76271
76289
76325
76346
76368
76378
76431
76456
76476
76488
76512
76528
76529
76551
76586
76611
76622
76641
76660
76686
76698
76741
76751
76757
76782
76804
76838
76848
76879
76905
76914
76952
76959
76973
76986
77014
77039
77061
77069
77060
76989
76873
76806
76734
76717
76704
76744
76777
76821
76810
76848
76859
76842
76850
76856
76832
76814
76824
76810
76820
76836
76819
76812
76818
76815
76825
76832
76847
76845
76850
76858
76861
76851
76846
76859
76852
76856
76863
76880
76893
76887
76849
76753
76658
76568
76518
76522
76491
76502
76507
76488
76499
76500
76527
76538
76573
76556
76555
76545
76538
76545
76558
76553
76581
76589
76597
76584
76594
76608
76587
76636
76639
76644
76662
76659
76692
76689
76707
76690
76686
76588
76466
76409
76393
76383
76390
76369
76397
76387
76377
76404
76413
76445
76471
76474
76467
76485
76482
76477
76500
76522
76557
76555
76564
76567
76599
76601
76626
76654
76655
76669
76670
76682
76712
76712
76727
76737
76741
76770
76768
76789
76747
76664
76569
76479
76459
76421
76433
76412
76403
76385
76384
76369
76381
76412
76426
76453
76440
76457
76464
76464
76473
76483
76480
76521
76507
76526
76560
76570
76585
76587
76617
76622
76628
76647
76628
76644
76663
76644
76652
76664
76685
76685
76676
76707
76700
76729
76754
76755
76747
76744
76643
76553
76475
76452
76431
76411
76423
76425
76447
76410
76417
76430
76444
76459
76455
76455
76469
76461
76466
76470
76483
76489
76495
76520
76531
76554
76554
76576
76574
76568
76583
76593
76595
76600
76601
76624
76641
76628
76664
76667
76667
76685
76680
76704
76679
76629
76527
76462
76426
76394
76398
76417
76419
76426
76424
76440
76456
76474
76459
76490
76494
76490
76490
76495
76496
76511
76521
76524
76543
76554
76568
76590
76598
76607
76617
76639
76641
76663
76675
76679
76675
76701
76714
76718
76685
76576
76490
76417
76418
76404
76401
76432
76424
76417
76453
76459
76490
76506
76523
76516
76551
76552
76543
76561
76563
76582
76604
76600
76594
76626
76623
76648
76664
76669
76698
76691
76716
76710
76738
76730
76727
76715
76624
76527
76469
76448
76440
76432
76435
76443
76424
76440
76440
76459
76485
76505
76529
76529
76530
76530
76511
76535
76540
76555
76566
76581
76601
76610
76633
76624
76645
76662
76666
76677
76687
76714
76704
76732
76744
76741
76750
76719
76630
76547
76465
76441
76433
76428
76445
76421
76430
76430
76453
76472
76491
76491
76504
76510
76505
76517
76521
76531
76540
76543
76554
76561
76579
76582
76596
76620
76623
76628
76649
76662
76665
76698
76712
76727
76734
76774
76774
76779
76807
76804
76815
76827
76861
76863
76861
76831
76732
76646
76567
76531
76513
76514
76489
76511
76499
76519
76496
76521
76530
76565
76567
76582
76579
76587
76604
76589
76612
76606
76611
76614
76631
76640
76645
76648
76674
76679
76689
76696
76713
76703
76730
76740
76744
76769
76799
76789
76787
76820
76828
76834
76862
76871
76829
76742
76640
76577
76555
76532
76511
76508
76525
76514
76501
76535
76539
76544
76555
76573
76556
76554
76556
76549
76563
76563
76588
76596
76594
76601
76616
76603
76626
76617
76640
76644
76671
76664
76687
76689
76709
76715
76725
76735
76749
76754
76761
76742
76687
76592
76509
76446
76448
76427
76447
76433
76453
76447
76455
76464
76498
76501
76493
76520
76512
76507
76493
76513
76525
76535
76542
76562
76571
76592
76587
76593
76614
76623
76630
76643
76650
76670
76659
76668
76688
76685
76659
76585
76503
76426
76387
76374
76362
76362
76342
76358
76343
76346
76338
76380
76412
76405
76412
76404
76400
76409
76406
76426
76431
76455
76453
76455
76466
76480
76493
76503
76520
76524
76517
76527
76567
76583
76589
76592
76602
76623
76626
76654
76651
76655
76659
76628
76514
76410
76356
76321
76299
76276
76261
76251
76261
76259
76256
76264
76298
76332
76312
76341
76352
76344
76316
76315
76318
76294
76321
76314
76305
76327
76354
76365
76380
76402
76427
76434
76453
76463
76504
76490
76507
76535
76547
76548
76556
76570
76589
76601
76625
76640
76636
76618
76621
76620
76556
76478
76365
76273
76257
76263
76249
76250
76235
76230
76225
76236
76248
76288
76302
76300
76307
76306
76334
76303
76329
76335
76356
76367
76374
76381
76395
76417
76394
76423
76426
76438
76459
76467
76474
76507
76512
76529
76535
76549
76559
76572
76582
76614
76609
76616
76601
76528
76427
76356
76338
76311
76310
76318
76337
76332
76345
76362
76372
76428
76433
76449
76456
76451
76461
76464
76474
76486
76498
76509
76513
76509
76505
76539
76553
76568
76579
76584
76616
76627
76645
76663
76660
76676
76700
76698
76704
76676
76577
76492
76434
76400
76412
76389
76393
76409
76423
76419
76430
76441
76482
76489
76506
76516
76509
76508
76505
76508
76521
76530
76530
76561
76575
76555
76569
76581
76599
76608
76623
76630
76648
76683
76675
76690
76719
76743
76741
76741
76764
76769
76781
76804
76799
76712
76610
76535
76467
76455
76447
76417
76419
76422
76404
76421
76428
76429
76458
76473
76483
76476
76476
76457
76464
76479
76471
76488
76469
76500
76516
76536
76544
76573
76592
76610
76617
76628
76675
76677
76694
76732
76741
76740
76741
76762
76763
76776
76783
76797
76798
76819
76805
76824
76827
76839
76829
76794
76687
76595
76540
76509
76504
76497
76488
76476
76499
76489
76510
76505
76530
76546
76565
76568
76569
76571
76581
76575
76585
76566
76585
76601
76608
76615
76620
76640
76643
76647
76681
76682
76691
76703
76725
76729
76750
76760
76785
76779
76808
76810
76828
76836
76847
76786
76692
76629
76572
76555
76541
76562
76559
76569
76574
76577
76597
76584
76624
76645
76631
76641
76630
76618
76632
37772
76635
76660
76663
76670
76678
76703
76708
76721
76727
76757
76754
76775
76774
76813
76796
76810
76837
76836
76855
76810
76726
76643
76590
76556
76523
76519
76524
76530
76489
76506
76513
76504
76529
76557
76558
76550
76559
76526
76549
76555
76579
76590
76595
76604
76619
76636
76631
76659
76632
76686
76691
76707
76705
76711
76717
76729
76739
76759
76750
76760
76755
76763
76743
76747
76755
76773
76783
76773
76754
76673
76573
76490
76424
76393
76382
76364
76345
76356
76369
76369
76341
76380
76375
76380
76382
76393
76380
76364
76331
76293
76302
76284
76228
76185
76138
76040
75956
75748
74692
74880
74920
74900
74822
74721
74737
74828
74446
74065
73620
73293
72828
72719
72697
72653
72572
72583
72719
73187
72880
71740
72968
72990
72789
74124
74789
74464
74903
75350
75263
75540
75861
76161
76496
75211
72523
71865
74562
75716
74508
73430
72721
72961
73303
73417
73417
73410
73362
73318
73265
73148
72977
72890
72866
72858
72831
72812
72850
72870
72871
72851
72813
72743
72719
72692
72649
72642
72648
72691
72762
72782
72807
72843
72845
72854
72854
72855
72021
71267
71607
72195
72609
72788
72877
72978
73053
73158
73222
73233
73260
73301
73328
73366
73428
73467
73499
73529
73511
73452
73411
73400
73391
73382
73395
73395
73395
73400
73409
73432
73479
73498
73513
73552
73562
73537
73570
73588
73594
73620
73646
73669
73700
73733
73765
73789
73808
73858
73869
73905
73931
73975
73999
74038
74053
74091
74115
74166
74140
74078
74008
73968
73962
73962
73972
73978
73989
73987
74016
74021
74042
74077
74102
74098
74143
74143
74146
74185
74195
74193
74227
74243
74281
74300
74313
74320
74362
74372
74408
74415
74430
74464
74500
74517
74559
74578
74576
74616
74634
74649
74662
74700
74715
74739
74746
74785
74785
74808
74827
74839
74854
74875
74888
74881
74830
74751
74676
74631
74606
74616
74619
74621
74616
74640
74640
74656
74677
74681
74690
74686
74681
74668
74664
74646
74667
74677
74682
74693
74686
74686
74709
74699
74709
74746
74730
74737
74761
74788
74792
74807
74834
74834
74840
74844
74850
74864
74871
74893
74911
74926
74919
74836
74723
74633
74589
74569
74535
74544
74535
74556
74560
74577
74594
74640
74659
74666
74663
74615
74616
74603
74588
74573
74582
74562
74595
74586
74587
74582
74576
74595
74610
74604
74606
74641
74630
74656
74653
74666
74664
74680
74694
74698
74690
74706
74711
74734
74715
74749
74736
74753
74720
74693
74653
74540
74466
74418
74382
74359
74315
74307
74314
74295
74292
74297
74308
74329
74309
74320
74302
74320
74314
74289
74295
74290
74313
74308
74330
74344
74363
74361
74361
74359
74374
74361
74385
74393
74414
74420
74428
74433
74450
74463
74461
74489
74497
74494
74506
74523
74519
74541
74567
74562
74585
74596
74595
74630
74623
74602
74556
74442
74356
74281
74251
74233
74212
74203
74227
74212
74205
74215
74221
74241
74237
74280
74256
74283
74263
74262
74276
74269
74271
74265
74278
74264
74304
74299
74319
74322
74331
74366
74366
74381
74394
74408
74407
74442
74433
74448
74454
74466
74503
74514
74507
74517
74505
74544
74543
74560
74563
74562
74567
74533
74443
74372
74308
74282
74271
74261
74251
74261
74281
74264
74268
74273
74313
74336
74316
74310
74307
74300
74302
74321
74313
74335
74343
74358
74354
74366
74386
74382
74403
74410
74421
74428
74451
74452
74456
74472
74470
74481
74485
74484
74501
74518
74529
74528
74467
74377
74277
74268
74235
74225
74220
74206
74213
74209
74219
74216
74219
74269
74290
74261
74281
74284
74286
74276
74285
74272
74292
74292
74290
74304
74307
74339
74336
74342
74354
74367
74372
74387
74395
74397
74425
74429
74440
74436
74424
74468
74461
74494
74477
74492
74457
74376
74273
74192
74140
74103
74091
74074
74101
74084
74079
74070
74065
74068
74097
74110
74101
74118
74110
74124
74134
74124
74140
74126
74137
74147
74150
74158
74162
74159
74141
74158
74171
74174
74182
74189
74192
74212
74222
74254
74275
74289
74297
74332
74333
74333
74352
74373
74385
74402
74409
74430
74442
74444
74432
74358
74277
74176
74126
74095
74084
74069
74047
74067
74063
74047
74019
74055
74055
74080
74090
74092
74087
74095
74074
74083
74085
74092
74097
74086
74100
74110
74111
74108
74122
74131
74152
74179
74171
74170
74192
74190
74180
74209
74218
74231
74245
74245
74251
74257
74253
74286
74281
74280
74302
74299
74309
74269
74195
74094
73997
73971
73942
73935
73940
73937
73950
73937
73939
73944
73962
73989
73996
73993
73979
73972
73964
73965
73958
73977
73964
73976
73980
73988
73976
73992
74013
74023
74036
74037
74058
74066
74080
74093
74107
74101
74115
74132
74119
74132
74151
74146
74138
74068
73978
73880
73850
73818
73806
73813
73798
73786
73780
73795
73793
73812
73838
73829
73827
73797
73788
73792
73782
73811
73807
73844
73830
73838
73854
73865
73886
73889
73904
73911
73924
73947
73943
73963
73979
73999
73996
74025
74035
74052
74051
74002
73933
73844
73775
73747
73735
73725
73731
73737
73713
73728
73727
73740
73761
73781
73794
73795
73793
73786
73803
73827
73819
73820
73837
73851
73874
73867
73875
73892
73912
73918
73931
73951
73951
73991
74014
74021
74028
74050
74063
74061
74067
74061
74093
74089
74101
74105
74115
74119
74132
74147
74167
74170
74187
74187
74191
74207
74213
74242
74234
74211
74153
74033
73951
73902
73871
73854
73866
73850
73836
73845
73852
73854
73847
73888
73896
73908
73896
73887
73901
73905
73911
73925
73936
73944
73941
73959
73969
73979
73999
74013
74009
74044
74062
74087
74103
74115
74125
74128
74148
74158
74184
74202
74182
74221
74222
74229
74251
74284
74286
74291
74305
74304
74318
74341
74359
74352
74382
74389
74383
74314
74209
74115
74074
74052
74032
74035
74035
74034
74023
74022
74013
74018
74066
74043
74076
74076
74061
74049
74055
74058
74054
74073
74066
74085
74072
74086
74109
74133
74139
74130
74153
74157
74168
74173
74187
74197
74208
74236
74229
74257
74250
74292
74284
74301
74316
74327
74324
74334
74344
74350
74373
74372
74356
74299
74226
74142
74093
74060
74033
74036
74058
74052
74039
74042
74049
74038
74066
74087
74078
74077
74081
74067
74057
74043
74059
74073
74080
74082
74097
74095
74118
74132
74135
74148
74161
74181
74189
74202
74199
74222
74226
74259
74251
74263
74283
74289
74268
74278
74289
74277
74222
74136
74029
73989
73988
73975
73962
73978
73979
73970
73972
73979
73986
73995
74032
74027
74036
74014
74017
73999
74003
74023
74015
74042
74046
74050
74070
74068
74078
74070
74082
74103
74113
74114
74120
74135
74145
74151
74143
74143
74170
74165
74180
74201
74196
74213
74215
74225
74237
74254
74253
74291
74289
74329
74322
74317
74224
74113
73994
73945
73898
73862
73851
73859
73871
73865
73897
73889
73890
73903
73928
73943
73945
73948
73941
73944
73935
73947
73951
73936
73969
73967
74000
74020
74022
74018
74037
74052
74060
74063
74072
74082
74112
74123
74126
74148
74169
74176
74185
74208
74203
74231
74239
74262
74263
74286
74280
74310
74326
74309
74354
74365
74348
74283
74209
74122
74071
74037
74021
74018
74018
74035
74016
74039
74040
74049
74060
74093
74103
74109
74122
74118
74103
74107
74112
74120
74112
74135
74149
74169
74169
74178
74191
74191
74215
74220
74242
74251
74263
74291
74277
74294
74293
74327
74332
74339
74356
74377
74369
74400
74388
74435
74420
74419
74442
74433
74406
74315
74231
74172
74129
74112
74121
74121
74137
74139
74140
74150
74138
74171
74206
74201
74201
74203
74201
74167
74168
74193
74187
74198
74172
74213
74219
74225
74239
74244
74264
74288
74277
74295
74307
74326
74347
74341
74353
74376
74375
74379
74394
74383
74421
74416
74416
74338
74260
74176
74127
74105
74092
74084
74076
74082
74093
74082
74115
74129
74132
74152
74162
74169
74147
74140
74142
74146
74162
74167
74179
74196
74203
74215
74230
74243
74245
74251
74269
74281
74288
74306
74313
74333
74341
74342
74356
74366
74372
74397
74402
74407
74425
74425
74432
74435
74473
74434
74363
74255
74164
74111
74088
74065
74059
74074
74034
74029
74032
74035
74060
74078
74080
74094
74095
74115
74084
74097
74094
74116
74107
74127
74131
74142
74179
74178
74173
74180
74191
74203
74243
74260
74259
74262
74266
74292
74320
74323
74333
74354
74354
74377
74391
74380
74396
74411
74429
74439
74449
74457
74463
74476
74479
74496
74517
74500
74505
74521
74461
74339
74241
74184
74161
74147
74148
74125
74107
74131
74111
74114
74113
74126
74143
74168
74156
74153
74150
74148
74145
74156
74147
74151
74166
74160
74168
74191
74202
74205
74239
74258
74264
74285
74280
74286
74290
74307
74323
74334
74343
74362
74356
74379
74377
74392
74415
74413
74395
74428
74431
74437
74447
74458
74470
74465
74459
74378
74273
74196
74137
74133
74136
74139
74131
74144
74138
74135
74152
74154
74210
74214
74214
74199
74199
74191
74228
74208
74214
74233
74248
74251
74245
74300
74308
74300
74324
74367
74342
74391
74377
74405
74404
74436
74439
74460
74472
74481
74490
74505
74516
74521
74527
74538
74571
74554
74555
74513
74416
74326
74270
74216
74223
74236
74231
74210
74229
74232
74250
74263
74281
74295
74322
74317
74320
74310
74312
74320
74333
74332
74344
74370
74382
74384
74402
74433
74438
74452
74457
74479
74489
74507
74525
74544
74566
74585
74596
74616
74628
74624
74635
74645
74664
74662
74665
74684
74694
74716
74720
74727
74742
74743
74759
74720
74625
74520
74443
74396
74384
74365
74355
74328
74356
74327
74346
74344
74364
74365
74387
74404
74412
74397
74405
74405
74401
74410
74416
74424
74441
74425
74462
74456
74463
74496
74510
74517
74528
74561
74569
74571
74576
74607
74619
74642
74622
74641
74665
74684
74691
74714
74706
74745
74740
74746
74763
74769
74791
74772
74789
74809
74818
74826
74799
74702
74576
74511
74439
74430
74414
74408
74406
74414
74390
74378
74393
74392
74425
74443
74437
74435
74418
74430
74415
74408
74404
74432
74432
74433
74444
74453
74448
74469
74498
74496
74497
74503
74545
74533
74553
74545
74576
74572
74572
74604
74600
74601
74617
74604
74615
74628
74649
74652
74651
74635
74580
74467
74385
74321
74286
74278
74280
74270
74251
74277
74257
74252
74277
74305
74324
74331
74326
74333
74316
74321
74333
74330
74336
74351
74355
74371
74376
74377
74394
74393
74411
74417
74422
74435
74442
74463
74473
74486
74484
74496
74499
74506
74532
74521
74522
74555
74553
74579
74552
74480
74362
74287
74221
74204
74189
74179
74199
74189
74206
74185
74191
74189
74212
74258
74246
74263
74241
74235
74238
74248
74253
74273
74256
74271
74296
74292
74319
74324
74318
74326
74356
74363
74380
74404
74420
74438
74430
74447
74474
74484
74481
74505
74526
74544
74550
74570
74593
74585
74607
74617
74607
74647
74638
74662
74656
74652
74609
74504
74395
74329
74305
74288
74269
74281
74274
74263
74279
74279
74288
74284
74308
74334
74330
74342
74347
74340
74335
74356
74354
74354
74365
74375
74386
74401
74420
74423
74430
74466
74478
74481
74508
74523
74542
74552
74560
74573
74601
74607
74614
74637
74635
74642
74658
74678
74662
74682
74698
74715
74725
74745
74743
74759
74769
74760
74678
74581
74478
74416
74355
74358
74374
74380
74359
74369
74379
74382
74378
74404
74435
74436
74447
74434
74422
74427
74401
74431
74440
74443
74450
74447
74442
74464
74484
74481
74502
74510
74511
74550
74568
74557
74563
74602
74609
74610
74633
74625
74658
74666
74684
74686
74681
74710
74689
74697
74688
74607
74521
74411
74361
74353
74317
74320
74332
74345
74337
74341
74357
74348
74392
74393
74400
74397
74394
74374
74369
74398
74399
74421
74432
74409
74440
74436
74464
74475
74487
74490
74527
74536
74554
74551
74572
74595
74598
74602
74623
74623
74644
74657
74674
74689
74682
74713
74722
74720
74709
74676
74573
74463
74373
74343
74305
74309
74309
74282
74317
74287
74284
74301
74320
74335
74354
74350
74363
74378
74343
74330
74338
74376
74385
74385
74379
74408
74416
74432
74426
74426
74465
74479
74475
74501
74505
74545
74562
74563
74580
74594
74618
74605
74625
74639
74658
74661
74673
74689
74670
74716
74710
74726
74727
74726
74747
74764
74773
74698
74600
74506
74419
74366
74333
74324
74320
74317
74319
74312
74317
74324
74322
74336
74385
74364
74388
74384
74383
74384
74398
74397
74393
74388
74406
74405
74406
74393
74399
74405
74445
74440
74459
74487
74508
74540
74533
74554
74596
74595
74609
74608
74645
74660
74666
74668
74705
74702
74712
74725
74725
74742
74754
74765
74761
74760
74695
74577
74473
74394
74362
74353
74331
74344
74345
74354
74344
74365
74340
74386
74383
74410
74395
74400
74395
74365
74382
74394
74379
74375
74416
74396
74409
74452
74436
74449
74460
74501
74513
74523
74522
74543
74547
74530
74543
74578
74562
74568
74582
74584
74597
74613
74624
74603
74626
74629
74581
74469
74365
74314
74278
74267
74276
74274
74277
74301
74319
74300
74314
74338
74378
74394
74390
74401
74362
74338
74327
74330
74337
74338
74336
74366
74358
74394
74410
74439
74445
74460
74495
74507
74523
74533
74555
74589
74591
74607
74616
74636
74645
74665
74688
74697
74698
74709
74725
74740
74727
74663
74538
74438
74358
74307
74311
74286
74277
74267
74293
74288
74309
74310
74303
74352
74352
74363
74368
74377
74359
74373
74354
74370
74392
74404
74405
74428
74428
74452
74457
74469
74490
74517
74539
74529
74564
74555
74602
74582
74587
74638
74649
74661
74673
74663
74706
74689
74715
74724
74744
74740
74764
74783
74789
74777
74796
74808
74831
74772
74695
74570
74474
74424
74400
74400
74368
74364
74387
74358
74361
74371
74364
74396
74411
74400
74407
74422
74422
74413
74405
74398
74400
74411
74443
74435
74447
74464
74462
74486
74505
74518
74535
74536
74568
74566
74577
74594
74610
74614
74625
74636
74666
74681
74674
74718
74729
74722
74724
74744
74752
74760
74772
74784
74794
74798
74720
74613
74501
74410
74364
74332
74330
74324
74338
74341
74327
74338
74332
74356
74361
74369
74373
74382
74352
74349
74844
74886
74892
74894
74874
74801
74668
74572
74508
74458
74432
74427
74437
74439
74447
74446
74461
74451
74473
74480
74499
74514
74509
74516
74531
74520
74512
74517
74553
74560
74565
74576
74582
74582
74622
74624
74642
74645
74659
74681
74683
74716
74724
74736
74744
74757
74781
74782
74799
74826
74827
74853
74860
74869
74879
74897
74896
74921
74927
74951
74940
74890
74757
74665
74580
74534
74523
74535
74532
74529
74543
74553
74543
74557
74590
74599
74597
74621
74630
74612
74593
74601
74595
74608
74628
74624
74637
74654
74658
74669
74684
74688
74722
74727
74718
74746
74772
74781
74802
74804
74800
74827
74836
74856
74853
74872
74896
74872
74904
74908
74914
74899
74799
74680
74604
74538
74511
74520
74521
74534
74551
74548
74543
74550
74563
74609
74618
74612
74600
74622
74600
74596
74611
74614
74627
74647
74648
74649
74678
74693
74696
74709
74740
74745
74748
74763
74773
74771
74801
74786
74805
74831
74846
74857
74858
41270
74882
74916
74909
74914
74923
74862
74739
74635
74542
74504
74482
74485
74492
74496
74486
74481
74476
74484
74512
74548
74558
74546
74552
74552
74536
74516
74545
74543
74547
74553
74610
74593
74597
74600
74607
74627
74650
74653
74682
74684
74693
74723
74754
74765
74779
74788
74781
74813
74826
74855
74850
74862
74888
74888
74903
74888
74928
74924
74949
74944
74882
74777
74651
74548
74492
74463
74449
74451
74446
74458
74450
74448
74457
74486
74483
74529
74529
74537
74524
74522
74523
74505
74519
74524
74516
74537
74568
74563
74569
74578
74591
74619
74634
74652
74640
74663
74693
74718
74733
74747
74748
74780
74800
74825
74854
74850
74853
74856
74873
74903
74908
74919
74926
74931
74951
74893
74775
74659
74563
74538
74493
74464
74468
74462
74477
74475
74490
74492
74492
74521
74530
74527
74503
74504
74489
74506
74492
74526
74538
74529
74559
74562
74581
74616
74627
74643
74655
74674
74678
74688
74703
74695
74711
74722
74721
74703
74744
74764
74756
74786
74813
74797
74820
74852
74835
74846
74856
74816
74729
74612
74513
74485
74471
74449
74485
74461
74467
74467
74472
74463
74500
74509
74514
74531
74513
74518
74502
74499
74495
74531
74510
74537
74563
74554
74569
74604
74591
74609
74621
74643
74656
74654
74690
74677
74708
74718
74715
74734
74748
74765
74776
74741
74660
74553
74465
74420
74403
74409
74413
74397
74414
74411
74421
74434
74456
74482
74496
74506
74495
74512
74502
74531
74500
74527
74550
74556
74560
74575
74569
74582
74613
74614
74643
74665
74669
74711
74693
74728
74721
74750
74740
74764
74780
74796
74799
74786
74658
74548
74433
74391
74369
74363
74365
74366
74356
74342
74375
74358
74376
74402
74429
74440
74460
74435
74440
74434
74441
74457
74460
74450
74468
74483
74515
74508
74528
74531
74552
74583
74581
74591
74629
74632
74654
74668
74703
74690
74714
74728
74750
74768
74765
74770
74780
74788
74812
74832
74854
74861
74862
74876
74870
74885
74909
74923
74866
74779
74615
74516
74468
74426
74404
74407
74407
74416
74397
74410
74405
74430
74450
74487
74482
74473
74477
74479
74473
74453
74468
74483
74496
74505
74506
74533
74513
74538
74560
74572
74586
74599
74633
74639
74652
74668
74694
74710
74712
74704
74730
74738
74767
74759
74781
74816
74813
74815
74838
74834
74864
74869
74871
74885
74924
74929
74896
74808
74672
74564
74481
74450
74455
74422
74443
74420
74420
67531
74438
74438
74452
74486
74469
74476
74474
74482
74484
74468
74472
74486
74500
74507
74509
74547
74548
74564
74594
74597
74631
74626
74678
74680
74678
74700
74713
74714
74739
74748
74763
74786
74796
74807
74813
74817
74838
74862
74869
74859
74810
74703
74616
74552
74505
74526
74538
74542
74552
74556
74550
74573
74579
74631
74666
74678
74680
74680
74664
74650
74661
74680
74689
74692
74703
74715
74729
74741
74749
74778
74788
74805
74822
74834
74852
74869
74869
74899
74896
74912
74948
74940
74945
74960
74991
74995
75003
75019
75029
74975
74868
74733
74676
74624
74590
74599
74598
74603
74594
74605
74600
74594
74590
74605
74572
74573
74568
74542
74519
74498
74504
74512
74491
74508
74497
74499
74508
74501
74532
74554
74611
74614
74665
74687
74739
74755
74791
74818
74863
74879
74796
74698
74628
74537
74463
74398
74334
74268
74138
74011
73916
73869
73810
73681
73573
73589
73586
73604
73625
73627
73669
73690
73726
73724
73737
73744
73735
73756
73748
73782
73795
73806
73815
73847
73857
73871
73905
73934
73949
73951
73992
73997
74016
74026
74068
74083
74146
74180
74205
74255
74237
74201
74140
74063
74066
74048
74057
74076
74106
74160
74250
74415
74689
74833
75007
75237
75230
75275
75294
75255
75333
75324
75608
75684
75324
74680
73328
73204
73346
74012
74934
75725
76144
76395
76588
76610
76714
76769
75174
75683
74496
75279
73480
72814
73115
73089
72817
72955
72930
73008
73093
73119
73235
73422
73778
73998
74236
74277
74302
74483
74428
74582
74943
75153
75808
76792
77233
77579
77685
77838
78197
78216
78299
77792
77394
77298
77427
77516
76887
76727
76765
76846
76919
76876
77363
77572
77742
77849
77955
78025
78006
78024
77973
77971
77977
77984
78021
78038
78096
78128
78151
78109
78098
78151
78225
78278
78216
78093
77947
77866
77896
77872
77910
77933
78002
78073
78113
78169
78230
78242
78215
78268
78271
78266
78303
78334
78343
78334
78373
78381
78389
78407
78439
78463
78492
78565
78620
78649
78697
78678
78559
78230
78045
77975
77929
77943
77960
78015
78048
78073
78080
78065
78056
78078
78103
78116
78130
78132
78126
78106
78089
78062
78131
78212
78297
78325
78396
78519
78518
78390
78125
78026
78003
77924
77735
77693
77685
77701
77764
77802
77845
77866
77876
77913
77986
77913
77846
77794
77723
77648
77644
77686
77731
77744
77739
77786
77812
77858
77923
77934
77916
77926
77956
77888
77772
77696
77653
77621
77583
77582
77544
77560
77702
77755
77742
77765
77777
77760
77722
77677
77686
77731
77705
77732
77781
77791
77788
77794
77827
77848
77910
77957
77999
77973
77928
77777
77666
77588
77566
77586
77612
77683
77766
77792
77847
77899
77924
77956
77997
78019
78063
78068
78078
78091
78098
78132
78142
78174
78179
78193
78203
78244
78276
78300
78318
78278
78189
78124
78086
78034
78019
78014
78023
78043
78091
78131
78161
78187
78217
78222
78259
78278
78294
78294
78313
78320
78357
78371
78353
78390
78403
78439
78468
78466
78482
78495
78516
78462
78316
78114
78047
77982
77928
77856
77827
77730
77566
77415
77320
77269
77280
77252
77227
77192
77199
77177
77180
77177
77080
77000
76913
76904
76902
76883
76873
76912
76929
76974
76963
76896
76825
76754
76735
76684
76663
76672
76745
76833
76894
77021
77075
77147
77225
77284
77381
77402
77419
77397
77401
77414
77426
77439
77471
77479
77503
77514
77514
77509
77502
77458
77374
77212
77069
76960
76881
76765
76686
76633
76578
76523
76518
76546
76537
76531
76497
76507
76468
76466
76457
76454
76463
76449
76491
76521
76558
76578
76603
76583
76601
76610
76635
76559
76393
76220
76105
76017
75976
75946
75960
75986
76013
76039
76101
76179
76250
76347
76437
76548
76606
76649
76767
76805
76840
76883
76966
77004
77044
77152
77183
77230
77264
77264
77221
77120
77018
76990
76985
76984
76988
77014
77058
77102
77135
77171
77213
77247
77257
77254
77265
77257
77291
77339
77328
77356
77351
77383
77379
77428
77431
77478
77482
77510
77504
77433
77306
77177
77121
77093
77082
77123
77141
77160
77182
77210
77234
77276
77292
77296
77294
77294
77298
77323
77348
77346
77347
77346
77331
77362
77368
77370
77385
77382
77403
77408
77417
77386
77256
77121
77028
76954
76923
76895
76899
76914
76917
76942
76951
76964
76996
76993
76993
76992
76971
76974
76994
76989
76994
77028
77026
77045
77032
77027
76992
76963
76938
76934
76953
76934
76860
76739
76625
76519
76405
76338
76297
76375
76484
76548
76638
76754
76860
76902
76943
76955
76961
76953
76954
77004
77014
77048
77038
77024
77003
77027
77026
77029
77049
77054
77049
77030
76951
76802
76658
76577
76573
76627
76679
76664
76562
76506
76508
76742
76822
76867
76898
76864
76883
76820
76765
76709
76699
76699
76691
76760
76808
76906
76970
76979
76980
76988
76994
76948
76835
76718
76659
76630
76640
76709
76723
76790
76830
76867
76892
76949
76953
76947
76938
76907
76902
76870
76878
76868
76851
76877
76896
76908
76913
76938
76926
76942
76946
76966
76989
77012
76956
76855
76768
76735
76752
76764
76762
76759
76798
76789
76797
76803
76815
76818
76798
76741
76670
76593
76522
76441
76363
76282
76217
76169
76113
76063
76003
75949
75903
75846
75811
75784
75760
75622
75469
75331
75249
75259
75220
75227
75325
75685
75990
76132
76238
76319
76415
76476
76527
76570
76558
76553
76556
76560
76559
76518
76494
76478
76506
76514
76553
76601
76643
76754
76819
76879
76874
76804
76770
76762
76766
76778
76815
76876
76878
76904
76935
76986
77016
77043
77054
77087
77117
77194
77295
77324
77080
77008
76916
76900
76906
76867
76861
76841
76847
76860
76879
76883
76887
54289
76745
76651
76580
76540
76528
76521
76491
76520
76505
76502
76532
76548
76568
76539
76535
76521
76531
76539
76521
76544
76541
76534
76511
76526
76536
76546
76614
76633
76649
76658
76683
76695
76708
76725
76748
76755
76763
76775
76803
76839
76829
76762
76662
76549
76514
76497
76498
76503
76511
76514
76523
76543
76567
76576
76571
76564
76564
76548
76543
76560
76555
76581
76607
76615
76620
76616
76635
76615
76656
76669
76665
76681
76700
76724
76746
76745
76769
76779
76768
76791
76781
76809
76814
76725
76633
76545
76479
76486
76459
76476
76503
76500
76504
76531
76526
76553
76528
76524
76489
76488
76474
76486
76484
76485
76500
76492
76500
76487
76500
76527
76533
76529
76558
76562
76579
76596
76598
76614
76640
76639
76647
76683
76690
76723
76729
76722
76752
76768
76759
76772
76770
76651
76522
76438
76363
76330
76306
76281
76247
76202
76207
76178
76171
76181
76229
76230
76217
76221
76219
76204
76208
76177
76149
76102
76077
76009
75901
75792
75660
75530
75520
75457
75437
75411
75397
75386
75382
75423
75435
75443
75494
75585
75672
75764
75891
76069
76197
76267
76314
76325
76250
76190
76178
76160
76213
76213
76232
76230
76177
76134
76132
76170
76195
76221
76241
76268
76297
76320
76353
76388
76431
76459
76438
76353
76282
76239
76257
76264
76303
76359
76400
76447
76520
76533
76552
76553
76543
76589
76604
76597
76588
76617
76635
76643
76674
76655
76659
76685
76693
76671
76557
76404
76288
76262
76244
76161
76129
76087
76072
76057
76003
75978
75961
75947
75942
75898
75891
75920
75940
75969
76005
76058
76096
76121
76154
76188
76233
76273
76324
76382
76422
76452
76479
76526
76541
76551
76588
76631
76682
76714
76729
76758
76771
76790
76837
76889
76936
77006
77066
77171
77174
77105
77015
76976
76956
76877
76842
76807
76792
76772
76760
76745
76744
76765
76766
76811
76806
76804
76831
76859
76878
76908
76940
76933
76939
76955
76940
76960
76911
76907
76903
76893
76862
76875
76881
76879
76866
76858
76872
76862
76850
76841
76826
76827
76841
76856
76854
76798
76710
76643
76587
76558
76562
76572
76590
76583
76616
76616
76625
76641
76644
76641
76626
76629
76631
76634
76625
76647
76647
76655
76661
76660
76663
76671
76698
76695
76736
76735
76737
76753
76765
76785
76791
76816
76809
76844
76839
76848
76877
76874
76912
76845
76728
76630
76572
76560
76543
76528
76531
76516
76530
76502
76503
76530
76515
76525
76490
76476
76407
76345
76280
76253
76243
76236
76208
76248
76269
76283
76243
76226
76240
76254
76280
76292
76321
76336
76368
76384
76395
76422
76416
76421
76446
76477
76483
76509
76518
76409
76293
76211
76171
76194
76181
76229
76223
76229
76246
76241
76261
76303
76346
76343
76307
76318
76295
76328
76336
76347
76356
76365
76377
76363
76389
76383
76381
76392
76378
76390
76402
76419
76405
76428
76439
76441
76444
76459
76443
76388
76298
76175
76143
76126
76112
76136
76127
76121
76119
76121
76112
76083
76058
76034
76020
76029
75948
75832
75762
75728
75736
75688
75675
75657
75686
75651
75608
75620
75643
75711
75853
76035
76268
76435
76524
76457
76405
76379
76379
76379
76319
76205
76096
76046
75992
75992
75979
75971
76010
75998
76035
76040
76071
76109
76125
76135
76154
76134
76125
76136
76116
76135
76145
76152
76155
76163
76179
76187
76197
76229
76219
76246
76250
76243
76271
76279
76312
76314
76323
76319
76334
76354
76347
76273
76163
76079
76027
76001
75992
75992
75950
75939
75920
75912
75932
75937
75944
75945
75882
75777
75715
75654
75656
75664
75690
75701
75727
75737
75784
75837
75898
75947
76002
76022
76043
76079
76096
76114
76119
76124
76125
76131
76169
76201
76232
76262
76274
76292
76318
76338
76376
76405
76418
76401
76310
76190
76133
76084
76073
76095
76079
76061
76049
76069
76079
76064
76093
76121
76099
76114
76104
76099
76077
76092
76097
76114
76106
76132
76128
76160
76158
76197
26485
26481
26451
26438
26418
26415
26410
26400
26379
26402
76363
76393
76402
76403
76422
76426
76425
76439
76456
76476
76478
76463
76445
76386
76318
76278