-26,-84,-9
4671,-30488,-3
-1921,-30465,0
-1089,-30465,3
-699,-22854,2
8,-6,1
9,-3,3
11,0,7
8,-1,10
9,3,10
11,3,15
8,3,15
11,2,17
10,5,11
12,0,10
11,-3,8
10,-2,5
9,-3,0
6,-7,-1
7,-5,-1
4,-10,0
3,-14,1
3,-12,5
3,-15,4
3,-12,9
2,-14,12
2,-13,13
7,-10,13
9,-11,13
12,-11,14
9,-9,12
13,-9,14
11,-10,11
10,-13,10
11,-11,5
11,-13,-1
11,-13,-3
10,-16,-10
10,-17,-11
11,-21,-10
9,-19,-13
5,-20,-14
1,-24,-10
2,-26,-5
-1,-25,-3
-1,-25,0
-4,-21,1
-6,-17,7
-6,-16,8
-4,-13,7
-3,-12,8
-3,-13,11
-4,-8,10
-2,-7,7
-4,-7,6
-5,-4,3
-6,-3,2
-9,-2,3
-7,1,2
-13,4,1
-15,4,-4
-19,3,-6
-20,6,-7
-21,7,-6
-24,7,-7
-25,9,-9
-25,8,-5
-24,12,-10
-21,11,-7
-24,14,-11
-24,9,-12
-23,6,-8
-26,7,-9
-28,5,-8
-28,4,-7
-25,3,-7
-27,2,-11
-26,1,-11
-20,2,-10
-16,4,-7
-10,3,-12
-5,2,-12
-2,2,-12
4,-2,-7
4,-2,-7
7,-2,-6
7,-6,-8
7,-7,-2
6,-10,-1
9,-12,-3
8,-12,1
10,-15,0
12,-11,-1
10,-18,0
8,-17,-2
8,-21,0
7,-24,-3
10,-24,-2
4,-25,-6
3,-23,-8
4,-19,-9
1,-16,-8
-2,-12,-8
-2,-9,-9
-5,-7,-13
-3,-5,-13
-7,-7,-16
-7,-3,-19
-7,0,-20
-4,-3,-22
-8,0,-26
-10,2,-27
-14,2,-29
-16,2,-30
-20,4,-28
-21,2,-30
-24,6,-30
-26,7,-26
-29,12,-28
-31,16,-25
-29,22,-24
-24,20,-18
-25,19,-18
-20,21,-17
-21,18,-12
-17,19,-13
-17,7,-21
-17,11,-23
-8,28,-21
-10,35,-29
-10,41,-33
-8,40,-36
-4,41,-43
-2,35,-51
3,32,-52
10,27,-55
13,22,-55
15,20,-53
14,13,-50
11,3,-44
7,1,-35
3,-2,-30
-1,-1,-20
-6,0,-14
-13,0,-6
-16,-2,-4
-14,4,1
-16,7,3
-12,9,5
-7,13,7
-1,16,7
9,17,9
12,14,10
16,16,16
13,14,20
15,17,25
10,20,29
4,21,34
-2,27,33
-11,32,36
-14,40,38
-18,48,36
-21,55,32
-19,57,28
-18,65,27
-16,67,22
-16,68,25
-16,71,23
-19,70,25
-23,80,28
-30,86,37
-43,90,38
-52,94,38
-67,98,43
-77,106,46
-91,111,43
-103,117,39
-108,119,32
-111,126,31
-116,126,29
-122,127,24
-124,130,20
-124,130,22
-120,134,20
-119,137,22
-122,142,20
-125,149,21
-129,156,26
-130,159,27
-140,161,30
-145,159,33
-154,160,31
-163,160,34
-166,159,34
-171,160,32
-172,161,36
-175,160,38
-176,164,42
-175,174,52
-175,186,56
-173,201,65
-171,223,77
-169,241,92
-178,263,103
-186,277,118
-200,295,130
-214,306,140
-228,317,152
-242,325,162
-257,331,166
-266,335,172
-271,339,177
-277,344,183
-271,348,187
-269,355,191
-261,359,198
-251,366,204
-248,374,210
-245,386,219
-251,403,231
-255,417,241
-264,434,254
-271,454,264
-277,476,275
-282,496,288
-281,515,298
-278,528,309
-272,540,322
-256,553,334
-236,564,350
-218,573,362
-185,582,381
-151,594,394
-117,600,413
-82,602,433
-56,608,457
-45,617,479
-41,632,501
-44,652,521
-56,677,545
-78,703,565
-105,725,584
-131,746,601
-152,755,611
-167,759,623
-175,761,627
-175,756,628
-161,748,630
-143,735,632
-114,716,638
-75,693,635
-33,674,643
12,663,650
50,662,660
86,666,674
114,673,687
138,679,700
157,694,712
168,701,729
178,715,731
186,730,739
200,740,743
213,744,741
222,743,739
238,736,734
250,727,726
269,719,718
286,700,706
307,676,702
331,650,688
353,623,678
368,596,674
385,572,663
393,550,658
399,531,651
400,513,644
395,492,638
387,470,629
380,456,623
377,448,617
374,433,613
363,422,608
358,402,603
352,387,599
353,368,596
352,362,585
357,364,585
360,380,587
367,397,588
371,419,586
371,447,591
367,476,593
365,501,597
357,527,597
347,555,596
336,574,595
322,593,590
310,603,584
297,606,572
286,606,563
267,603,549
255,587,535
243,571,520
232,551,505
222,530,489
214,509,475
210,490,457
204,475,442
200,465,428
198,453,412
194,450,399
182,454,387
174,452,379
161,457,366
146,467,352
133,468,345
120,472,333
110,471,327
99,467,319
90,458,309
85,443,302
84,426,294
86,405,290
90,380,283
101,365,277
108,349,271
119,324,266
128,321,261
136,321,254
145,318,251
151,323,247
148,325,245
143,333,241
136,336,236
130,332,236
119,332,230
110,330,228
100,315,227
92,303,224
84,289,218
81,271,211
80,252,213
87,237,209
97,225,204
108,219,201
120,217,202
131,214,202
141,216,204
154,215,204
165,216,208
175,219,212
183,215,216
192,213,219
196,210,221
203,203,226
206,197,234
209,189,238
208,180,240
210,168,242
206,150,243
199,137,252
189,124,255
178,114,257
166,111,259
154,112,255
147,116,251
142,124,245
132,130,235
131,134,223
126,142,212
123,142,201
119,145,190
115,141,180
114,132,168
109,127,158
114,112,151
112,98,146
112,76,139
120,61,135
121,44,134
128,34,136
129,28,135
137,26,136
142,30,136
151,30,142
158,41,144
167,48,150
178,57,151
184,64,154
193,69,163
201,77,166
207,79,173
215,78,178
220,73,186
225,63,191
224,54,202
227,40,204
227,26,210
227,13,214
225,6,221
226,-2,221
227,-5,224
232,-9,229
237,-9,228
246,-7,225
253,-6,221
260,-1,216
267,7,210
274,12,204
278,9,198
281,9,188
282,2,186
285,-8,176
293,-21,166
306,-37,156
321,-50,150
337,-64,141
358,-72,132
381,-78,123
401,-84,116
420,-86,108
431,-84,100
437,-81,94
437,-81,89
430,-78,89
421,-75,84
402,-75,78
386,-76,75
371,-81,73
357,-92,68
352,-102,61
350,-110,53
347,-113,42
355,-118,29
360,-117,12
372,-114,-4
387,-110,-25
403,-108,-41
418,-101,-64
434,-94,-86
446,-87,-103
456,-87,-120
464,-85,-137
470,-85,-155
476,-87,-168
480,-94,-180
479,-101,-188
474,-112,-203
476,-127,-214
472,-141,-220
474,-155,-233
481,-172,-243
488,-186,-252
497,-201,-265
507,-219,-271
521,-237,-281
527,-252,-286
533,-270,-287
537,-287,-288
543,-306,-290
549,-325,-286
557,-342,-283
565,-362,-275
568,-374,-263
581,-392,-253
593,-405,-237
606,-418,-218
624,-435,-195
639,-447,-171
658,-459,-146
686,-470,-123
719,-478,-100
758,-482,-81
806,-482,-56
852,-481,-33
907,-475,-3
959,-463,23
1019,-449,55
1076,-431,97
1135,-412,137
1186,-395,181
1236,-382,232
1283,-375,282
1328,-369,332
1370,-370,383
1407,-370,432
1439,-379,474
1474,-389,515
1509,-407,549
1538,-415,578
1564,-425,607
1592,-434,634
1622,-434,654
1658,-427,680
1700,-427,708
1739,-427,734
1782,-434,764
1821,-440,789
1864,-449,817
1901,-466,844
1944,-471,871
1987,-477,899
2021,-481,924
2055,-481,948
2082,-469,972
2108,-468,1001
2126,-448,1022
2144,-427,1048
2158,-412,1073
2166,-395,1093
2174,-388,1116
2177,-383,1144
2181,-385,1166
2180,-392,1191
2178,-399,1220
2168,-397,1242
2158,-400,1272
2139,-389,1295
2118,-368,1319
2091,-352,1335
2063,-327,1351
2041,-300,1355
2016,-283,1360
1993,-264,1358
1977,-248,1358
1967,-236,1357
1955,-227,1357
1952,-227,1359
1948,-228,1357
1945,-227,1362
1946,-232,1363
1945,-234,1365
1938,-231,1373
1930,-231,1381
1913,-224,1386
1892,-210,1392
1871,-198,1395
1847,-175,1398
1822,-141,1392
1797,-111,1388
1771,-79,1384
1745,-51,1375
1714,-20,1366
1689,6,1355
1658,30,1350
1632,43,1343
1598,59,1337
1556,71,1335
1517,84,1335
1475,100,1335
1441,121,1326
1413,152,1315
1392,187,1299
1367,224,1277
1346,265,1257
1322,304,1228
1298,334,1203
1270,363,1171
1250,386,1131
1229,403,1093
1213,411,1050
1198,414,1001
1187,412,958
1173,408,911
1157,406,866
1140,401,817
1126,397,771
1113,395,725
1097,395,683
1081,388,647
1069,380,611
1062,372,573
1052,367,542
1049,363,513
1049,361,483
1051,365,456
1056,368,430
1060,373,411
1065,373,391
1062,374,374
1058,370,360
1059,356,351
1054,345,344
1044,333,332
1035,319,320
1028,305,305
1022,298,283
1018,297,262
1019,304,233
1021,314,204
1029,334,170
1036,354,136
1042,375,99
1050,398,67
1060,414,36
1069,430,4
1073,439,-23
1081,445,-51
1083,448,-78
1082,456,-102
1084,457,-124
1079,462,-147
1085,468,-168
1088,479,-186
1092,478,-205
1089,488,-223
1088,491,-236
1085,487,-247
1076,478,-256
1072,468,-255
1062,451,-257
1049,438,-255
1033,418,-250
1013,396,-239
988,370,-227
955,342,-215
927,311,-204
891,278,-187
854,248,-175
819,213,-161
790,184,-150
771,157,-142
764,138,-136
766,125,-122
771,118,-114
779,117,-106
797,120,-94
813,133,-83
830,149,-73
839,168,-58
845,185,-42
842,207,-25
832,219,-8
814,232,9
792,239,23
762,239,34
729,236,44
695,227,54
653,212,59
612,193,68
572,168,67
538,138,64
525,105,62
510,74,59
507,42,52
506,8,48
507,-19,45
510,-47,41
519,-74,42
520,-87,35
529,-103,39
533,-115,40
535,-123,40
536,-132,42
529,-139,43
517,-144,44
506,-151,45
486,-157,49
460,-157,54
432,-158,54
401,-156,56
368,-152,51
335,-146,52
304,-140,47
277,-136,45
246,-132,39
223,-126,33
200,-118,26
182,-114,17
169,-110,12
158,-107,2
152,-103,-6
150,-109,-13
157,-120,-23
164,-128,-30
174,-143,-33
183,-158,-38
193,-164,-41
203,-177,-41
210,-176,-38
211,-176,-32
211,-173,-24
209,-164,-14
201,-152,-5
191,-138,6
180,-122,16
165,-102,24
153,-86,33
143,-72,38
134,-59,44
126,-45,49
124,-34,53
125,-28,53
130,-21,53
137,-22,57
142,-23,57
152,-29,58
160,-35,60
164,-41,65
171,-52,72
177,-57,80
180,-57,88
182,-56,98
178,-60,108
173,-58,115
171,-52,123
165,-50,132
155,-49,138
153,-43,145
148,-43,149
149,-41,152
150,-50,158
155,-54,163
159,-66,171
168,-73,180
180,-80,192
192,-85,202
201,-82,215
215,-76,223
229,-75,240
239,-65,251
246,-52,267
256,-42,281
263,-26,288
266,-9,303
263,2,316
258,18,332
250,28,345
238,31,355
224,34,367
213,30,379
197,14,388
182,-15,398
169,-53,409
157,-97,417
152,-146,423
151,-197,430
157,-243,432
167,-279,435
178,-309,432
191,-324,430
205,-338,427
215,-340,422
228,-333,421
239,-322,420
248,-303,417
259,-282,417
269,-258,413
277,-230,413
283,-205,408
289,-173,408
291,-148,405
285,-120,400
281,-92,395
269,-66,392
258,-47,388
240,-27,386
219,-18,377
195,-10,370
176,-12,366
156,-20,356
136,-29,349
123,-41,333
117,-60,320
113,-78,308
110,-101,295
108,-117,279
112,-133,265
106,-151,254
107,-167,244
106,-179,235
105,-193,227
106,-208,217
102,-224,206
104,-242,199
107,-264,191
102,-284,184
106,-305,174
100,-328,168
95,-351,161
92,-379,154
85,-397,146
79,-419,139
80,-435,129
78,-443,117
81,-447,103
83,-439,85
86,-429,72
93,-416,58
94,-393,39
97,-371,27
96,-340,15
92,-311,6
87,-277,0
78,-242,-7
70,-210,-14
63,-175,-21
55,-146,-28
48,-121,-36
39,-100,-41
34,-89,-44
27,-73,-52
26,-64,-59
22,-52,-65
20,-43,-74
20,-31,-81
15,-18,-92
13,-16,-98
6,-3,-112
0,2,-118
-6,9,-129
-15,14,-138
-25,12,-148
-35,5,-154
-49,-1,-165
-52,-13,-173
-63,-28,-187
-69,-41,-194
-75,-56,-209
-80,-73,-219
-82,-84,-232
-89,-97,-243
-99,-103,-255
-104,-114,-265
-113,-121,-278
-123,-128,-290
-133,-135,-299
-143,-139,-309
-153,-143,-322
-157,-149,-332
-166,-151,-342
-172,-153,-354
-175,-157,-364
-177,-159,-374
-175,-157,-384
-171,-158,-391
-170,-159,-399
-167,-150,-408
-160,-144,-413
-158,-135,-417
-153,-127,-421
-150,-116,-420
-147,-107,-426
-147,-102,-421
-145,-94,-422
-141,-93,-421
-135,-90,-421
-132,-93,-420
-130,-99,-420
-121,-108,-425
-113,-120,-423
-108,-130,-428
-100,-138,-433
-93,-153,-433
-86,-157,-436
-88,-157,-441
-85,-155,-443
-91,-146,-449
-98,-136,-454
-107,-123,-460
-118,-106,-469
-130,-86,-479
-142,-72,-490
-157,-58,-504
-168,-47,-513
-179,-42,-528
-191,-38,-543
-204,-35,-562
-209,-42,-577
-213,-49,-590
-217,-57,-604
-219,-66,-619
-220,-86,-630
-221,-99,-636
-216,-112,-642
-209,-125,-655
-198,-130,-671
-191,-140,-683
-184,-148,-694
-180,-154,-704
-184,-158,-709
-190,-159,-717
-190,-160,-726
-192,-161,-734
-195,-171,-743
-195,-182,-755
-202,-203,-762
-211,-215,-767
-227,-237,-770
-238,-255,-769
-259,-276,-772
-271,-294,-774
-290,-310,-776
-307,-325,-779
-324,-340,-776
-344,-352,-777
-362,-358,-773
-377,-359,-772
-392,-364,-773
-408,-353,-770
-421,-346,-769
-429,-343,-770
-439,-335,-767
-441,-328,-760
-446,-320,-757
-447,-308,-749
-451,-296,-740
-449,-284,-731
-452,-269,-723
-455,-250,-712
-463,-234,-695
-471,-221,-683
-478,-206,-664
-488,-194,-645
-499,-179,-626
-504,-172,-606
-510,-163,-589
-512,-163,-572
-516,-162,-558
-513,-160,-544
-510,-166,-531
-504,-169,-518
-498,-174,-507
-490,-179,-496
-481,-185,-484
-473,-195,-473
-465,-210,-457
-456,-209,-445
-442,-209,-434
-432,-210,-426
-416,-218,-415
-402,-223,-406
-390,-225,-392
-377,-229,-381
-371,-232,-366
-365,-237,-349
-365,-239,-333
-369,-246,-310
-371,-253,-288
-368,-259,-271
-374,-270,-249
-381,-277,-231
-384,-285,-210
-393,-286,-193
-397,-291,-169
-402,-290,-152
-404,-288,-131
-410,-281,-114
-411,-274,-96
-414,-260,-82
-417,-249,-63
-422,-231,-50
-424,-214,-31
-425,-200,-17
-430,-187,0
-433,-172,12
-440,-166,27
-446,-159,42
-455,-160,58
-461,-159,70
-468,-156,83
-468,-158,92
-465,-157,102
-463,-149,109
-467,-146,121
-463,-141,128
-461,-134,136
-460,-128,142
-459,-120,150
-467,-111,155
-476,-100,161
-487,-92,160
-505,-81,162
-523,-72,160
-539,-66,155
-551,-59,147
-564,-55,141
-576,-54,133
-580,-56,122
-582,-56,108
-579,-61,100
-573,-65,88
-561,-71,77
-552,-74,69
-533,-80,58
-516,-81,49
-496,-85,44
-475,-89,39
-455,-90,34
-437,-96,35
-423,-97,36
-402,-97,38
-392,-101,43
-375,-105,49
-367,-105,52
-356,-102,60
-346,-105,66
-338,-101,75
-325,-101,80
-317,-95,87
-309,-87,91
-293,-81,102
-279,-70,113
-265,-61,120
-245,-56,133
-229,-44,142
-201,-42,152
-173,-40,162
-142,-37,178
-112,-43,197
-77,-45,217
-50,-44,231
-15,-45,255
16,-44,282
49,-41,307
80,-36,328
113,-35,358
142,-29,385
176,-29,413
205,-24,438
232,-17,468
259,-12,499
283,-3,532
301,11,564
317,33,599
331,3,629
352,43,659
377,24,686
404,36,709
436,44,728
475,60,746
516,73,758
562,84,765
606,95,773
648,113,778
692,122,778
737,129,780
775,127,780
811,130,777
841,123,781
872,112,783
896,96,785
916,81,784
938,68,783
956,58,786
969,50,783
981,48,778
994,47,774
1001,42,771
1005,39,763
1008,37,758
1008,31,754
1003,33,749
997,39,744
985,53,740
974,47,739
958,33,738
938,9,737
915,-8,731
890,-31,727
863,-51,723
836,-75,712
811,-91,704
782,-109,692
753,-121,674
730,-130,655
703,-137,635
675,-139,615
656,-138,590
634,-135,561
616,-133,534
595,-129,504
574,-123,470
559,-118,443
538,-113,412
519,-113,376
495,-111,343
472,-107,310
448,-105,275
422,-108,242
400,-20,209
380,-50,176
362,-72,142
344,-68,109
323,-83,78
306,-95,50
284,-111,24
273,-103,0
266,-79,-16
262,-68,-31
253,-47,-45
249,-33,-53
244,-16,-57
239,0,-57
235,15,-54
228,30,-46
227,43,-41
226,55,-34
228,67,-22
227,81,-8
227,94,4
231,108,20
236,123,36
234,136,50
237,148,69
241,155,88
242,165,99
244,173,108
242,176,111
241,176,114
248,176,113
247,170,109
247,165,105
252,158,93
250,153,78
252,145,58
249,131,35
248,119,14
246,107,-22
243,93,-48
243,87,-86
238,76,-124
232,68,-162
227,63,-200
217,57,-236
206,50,-276
194,49,-311
182,42,-348
169,38,-386
162,32,-421
155,32,-458
151,28,-493
152,27,-531
154,32,-566
156,35,-590
160,40,-610
169,45,-622
178,55,-631
196,70,-635
213,83,-633
234,101,-627
263,116,-609
285,162,-588
320,151,-563
344,177,-530
380,169,-497
407,189,-464
435,189,-428
465,203,-388
494,211,-356
518,205,-321
552,217,-297
581,213,-268
610,223,-249
632,230,-231
651,225,-214
652,216,-197
646,199,-182
637,179,-165
619,159,-156
592,138,-144
562,116,-132
531,90,-127
492,63,-123
454,30,-118
415,0,-115
376,-22,-117
337,-54,-114
293,-84,-115
248,-115,-116
197,-138,-121
151,-156,-124
102,-173,-125
55,-187,-125
13,-203,-123
-20,-214,-122
-61,-221,-120
-92,-219,-118
-121,-218,-110
-143,-223,-103
-165,-220,-95
-178,-219,-90
-191,-211,-80
-201,-200,-65
-208,-185,-49
-209,-165,-36
-209,-151,-20
-205,-133,-1
-196,-121,17
-189,-108,32
-176,-96,53
-161,-87,70
-146,-75,86
-133,-56,106
-119,-39,120
-104,-20,132
-90,-1,146
-75,19,155
-58,42,161
-44,72,163
-27,95,165
-17,123,163
-6,144,163
3,165,162
8,180,156
13,190,148
16,192,140
18,190,129
25,178,112
19,162,99
14,141,89
5,116,78
-5,93,67
-17,69,59
-34,56,45
-48,44,33
-61,35,25
-75,28,13
-86,21,4
-101,10,-6
-109,-6,-6
-122,-20,-9
-134,-42,-7
-151,-71,-1
-159,-104,4
-167,-135,11
-175,-162,19
-181,-186,31
-186,-210,41
-184,-225,53
-185,-236,64
-177,-243,75
-172,-246,83
-161,-250,93
-148,-252,102
-131,-253,107
-115,-256,117
-101,-259,123
-83,-265,129
-68,-278,132
-53,-295,138
-38,-320,144
-28,-335,142
-14,-352,147
-6,-361,149
-1,-363,151
4,-356,156
9,-346,156
11,-338,167
15,-327,172
21,-318,179
24,-309,177
34,-298,175
39,-289,170
48,-286,159
55,-283,152
56,-283,143
64,-280,134
62,-270,130
63,-264,124
64,-249,115
60,-233,116
55,-214,115
50,-195,112
43,-173,110
35,-155,108
32,-141,107
25,-133,104
17,-120,103
13,-113,100
7,-110,98
3,-105,95
0,-108,95
-2,-110,90
-4,-121,85
-8,-126,81
-6,-131,76
-4,-133,74
-4,-134,75
-3,-132,74
-2,-129,74
-1,-124,74
-3,-117,76
0,-110,76
1,-105,80
6,-102,80
9,-97,82
17,-96,83
23,-93,83
29,-97,84
36,-92,84
44,-90,84
50,-88,83
57,-84,76
59,-83,81
66,-80,79
68,-78,82
70,-73,81
70,-70,83
71,-68,81
69,-72,85
64,-73,88
61,-80,92
56,-85,94
50,-87,96
44,-90,101
42,-91,98
39,-90,97
33,-89,97
36,-85,96
35,-77,92
32,-69,90
33,-65,88
34,-59,85
32,-53,86
28,-47,86
25,-40,87
24,-36,89
21,-32,87
15,-29,90
8,-24,93
5,-13,95
-1,-23,98
-9,-24,97
-15,-36,97
-22,-38,96
-30,-48,91
-35,-51,87
-40,-50,80
-45,-50,74
-47,-40,68
-45,-39,59
-46,-30,57
-46,-23,45
-43,-14,39
-39,-6,34
-37,1,23
-27,4,21
-24,14,13
-15,17,11
-8,21,9
-2,24,8
3,22,7
10,21,9
14,13,10
13,2,12
19,-7,12
24,-16,15
26,-20,15
26,-18,20
27,-20,18
30,-14,20
31,-14,19
31,-11,20
32,-12,17
28,-7,22
28,-9,22
25,-11,21
19,-14,26
16,-19,28
15,-22,28
9,-27,27
6,-33,30
1,-36,31
-6,-42,35
-9,-45,35
-12,-46,36
-16,-43,32
-21,-44,30
-24,-36,24
-25,-30,19
-24,-20,13
-26,-16,6
-27,-14,2
-25,-6,-1
-27,0,-10
-26,0,-8
-28,5,-15
-26,2,-17
-27,3,-17
-26,1,-18
-26,-1,-22
-32,-1,-22
-33,0,-20
-31,-1,-18
-31,0,-18
-36,1,-20
-37,-1,-18
-41,-2,-18
-45,-3,-13
-53,-1,-11
-57,0,-13
-56,-3,-12
-58,-8,-11
-59,-8,-9
-61,-7,-8
-60,-7,-11
-61,-12,-12
-59,-15,-8
-61,-17,-6
-58,-23,-5
-59,-26,-8
-54,-31,-7
-53,-35,-6
-54,-29,-6
-54,-26,-4
-52,-28,0
-50,-26,4
-43,-26,4
-42,-28,4
-35,-30,5
-31,-31,6
-28,-28,7
-21,-29,7
-22,-23,6
-19,-18,7
-20,-13,5
-17,-7,5
-18,-4,6
-19,-3,1
-21,-1,3
-24,2,0
-25,4,2
-29,5,-1
-29,6,0
-34,2,0
-31,8,2
-29,8,0
-29,10,-1
-29,9,-4
-28,6,-4
-24,5,-7
-20,3,-11
-19,3,-9
-18,5,-11
-14,8,-11
-11,6,-9
-9,12,-9
-8,15,-7
-4,18,-2
-5,21,-4
-2,32,-4
0,41,-5
0,49,-3
0,57,-2
1,65,-2
1,70,-2
3,79,0
3,84,-1
2,88,-2
3,91,-1
2,90,2
1,88,1
3,86,3
3,84,1
0,79,0
6,73,7
5,67,6
8,63,9
10,61,8
9,60,7
5,62,7
6,63,8
3,63,7
0,58,0
-5,63,-2
-4,66,-3
-6,65,-6
-13,65,-12
-17,68,-11
-23,71,-16
-23,71,-13
-31,72,-19
-34,71,-19
-36,70,-18
-38,63,-19
-38,59,-17
-36,55,-18
-35,54,-18
-32,53,-24
-31,58,-24
-30,59,-25
-28,66,-24
-28,76,-27
-28,87,-25
-26,90,-24
-24,102,-24
-24,110,-24
-26,120,-23
-30,131,-20
-30,142,-15
-31,153,-8
-34,163,-4
-34,180,0
-36,197,-4
-35,210,-7
-37,230,-11
-39,253,-14
-41,275,-17
-42,297,-18
-39,314,-21
-39,338,-25
-37,363,-31
-38,386,-30
-36,407,-32
-40,435,-34
-38,459,-39
-36,486,-42
-36,512,-45
-37,546,-46
-36,582,-49
-31,620,-51
-29,654,-56
-21,688,-56
-17,726,-58
-10,763,-64
-7,805,-66
-6,849,-69
-6,897,-68
-10,947,-68
-19,995,-67
-25,1043,-66
-33,1083,-60
-43,1117,-54
-47,1149,-51
-47,1176,-50
-48,1199,-50
-44,1223,-52
-41,1244,-54
-31,1267,-56
-24,1287,-58
-15,1312,-61
-10,1334,-62
-9,1358,-58
-3,1379,-61
-6,1398,-56
-4,1415,-55
-5,1431,-53
-8,1440,-52
-15,1448,-54
-17,1454,-54
-19,1455,-55
-17,1452,-54
-14,1452,-61
-8,1452,-65
-3,1456,-71
1,1462,-73
7,1473,-76
14,1484,-82
24,1495,-84
22,1504,-87
30,1512,-92
33,1513,-95
34,1515,-95
33,1506,-98
36,1496,-97
35,1482,-98
47,1452,-108
45,1441,-111
45,1416,-113
46,1392,-115
50,1362,-113
52,1338,-109
57,1316,-107
56,1303,-103
59,1291,-97
59,1280,-92
56,1277,-86
57,1275,-85
60,1274,-83
58,1276,-81
56,1277,-81
47,1269,-80
50,1250,-74
40,1236,-76
32,1218,-77
22,1186,-73
11,1151,-75
10,1126,-81
11,1090,-86
13,1053,-90
13,1014,-97
13,977,-101
11,949,-101
5,922,-103
0,900,-101
-8,883,-102
-17,867,-102
-26,846,-97
-36,831,-98
-45,808,-93
-53,791,-92
-61,774,-98
-68,749,-98
-76,730,-99
-81,703,-101
-82,682,-101
-88,655,-99
-88,632,-105
-84,606,-103
-83,590,-108
-79,568,-108
-72,560,-109
-61,539,-113
-55,533,-114
-43,515,-113
-35,513,-113
-28,499,-110
-17,500,-109
-9,490,-104
0,496,-103
6,493,-98
12,497,-97
15,496,-95
20,500,-92
25,496,-93
28,495,-92
26,488,-91
25,476,-90
29,458,-89
26,438,-86
26,417,-90
23,395,-86
23,370,-87
23,346,-85
21,320,-90
22,295,-92
23,270,-94
25,248,-99
24,228,-104
23,211,-108
25,201,-109
23,194,-115
25,193,-114
28,189,-113
29,187,-117
27,189,-113
27,189,-113
24,193,-115
18,186,-110
15,194,-112
15,196,-110
15,193,-111
15,183,-113
14,178,-116
14,171,-116
13,155,-119
9,142,-122
8,128,-123
2,118,-124
-3,100,-118
-9,94,-118
-14,82,-117
-21,77,-111
-22,71,-110
-28,63,-106
-34,61,-104
-38,62,-102
-43,59,-101
-51,61,-105
-55,59,-102
-60,58,-103
-66,54,-102
-77,55,-106
-84,50,-105
-92,50,-108
-102,45,-107
-111,37,-109
-118,27,-112
-118,20,-115
-131,6,-117
-138,-10,-120
-144,-26,-120
-150,-44,-116
-156,-62,-120
-158,-84,-121
-163,-100,-122
-164,-120,-121
-165,-139,-126
-171,-152,-123
-164,-171,-122
-165,-186,-120
-161,-192,-121
-162,-203,-119
-157,-204,-119
-155,-202,-117
-149,-199,-115
-146,-192,-114
-144,-185,-111
-137,-172,-110
-132,-162,-113
-128,-155,-116
-121,-143,-116
-120,-133,-117
-121,-125,-125
-121,-113,-130
-123,-104,-135
-124,-93,-141
-127,-88,-145
-127,-87,-156
-131,-78,-164
-133,-79,-170
-132,-80,-180
-130,-78,-183
-132,-82,-190
-130,-82,-198
-131,-83,-203
-133,-87,-202
-132,-89,-201
-132,-96,-199
-132,-104,-192
-130,-111,-187
-128,-120,-183
-122,-129,-180
-117,-137,-179
-112,-140,-173
-105,-144,-172
-100,-146,-170
-97,-148,-167
-95,-151,-167
-94,-148,-168
-92,-147,-169
-91,-147,-167
-96,-148,-165
-90,-147,-161
-93,-149,-158
-92,-151,-157
-94,-157,-154
-98,-164,-150
-101,-166,-142
-107,-173,-134
-110,-181,-124
-116,-183,-114
-124,-187,-109
-131,-193,-104
-135,-194,-98
-138,-201,-91
-141,-214,-84
-144,-228,-76
-149,-237,-73
-156,-240,-69
-159,-236,-72
-167,-235,-62
-175,-238,-66
-185,-225,-72
-192,-221,-76
-203,-210,-75
-210,-201,-86
-215,-195,-90
-220,-192,-97
-222,-189,-108
-224,-185,-121
-231,-183,-130
-232,-182,-140
-237,-179,-153
-239,-177,-162
-240,-187,-171
-241,-202,-179
-235,-225,-186
-231,-242,-193
-220,-267,-203
-215,-285,-209
-204,-295,-219
-195,-306,-221
-187,-313,-226
-177,-312,-228
-167,-307,-232
-156,-299,-227
-151,-283,-226
-145,-268,-222
-140,-247,-217
-136,-222,-208
-132,-199,-198
-135,-174,-190
-131,-143,-183
-131,-115,-177
-128,-82,-165
-122,-53,-162
-122,-26,-152
-120,-1,-146
-112,21,-138
-105,40,-132
-94,53,-129
-88,59,-121
-82,60,-115
-75,56,-109
-69,48,-103
-64,42,-97
-60,30,-93
-59,15,-82
-56,1,-79
-53,-16,-75
-53,-31,-75
-55,-48,-70
-55,-61,-70
-62,-75,-70
-65,-82,-73
-71,-87,-77
-71,-89,-81
-75,-85,-85
-75,-84,-91
-75,-78,-102
-72,-75,-111
-68,-66,-118
-62,-60,-130
-57,-54,-138
-50,-47,-149
-48,-42,-157
-48,-37,-165
-43,-39,-169
-48,-33,-170
-48,-36,-175
-52,-37,-176
-58,-38,-176
-64,-44,-177
-73,-45,-179
-79,-48,-180
-84,-51,-181
-92,-52,-183
-100,-50,-187
-104,-54,-194
-110,-58,-201
-117,-66,-205
-122,-73,-211
-126,-85,-217
-132,-97,-226
-135,-109,-235
-137,-114,-243
-135,-126,-248
-140,-129,-259
-144,-133,-263
-144,-136,-270
-150,-140,-275
-149,-140,-277
-154,-140,-279
-153,-141,-277
-152,-138,-278
-154,-138,-280
-152,-137,-281
-153,-137,-277
-148,-131,-273
-146,-126,-270
-145,-118,-269
-142,-114,-263
-143,-95,-255
-139,-72,-248
-141,-63,-239
-137,-53,-228
-143,-46,-210
-142,-36,-201
-144,-12,-187
-145,2,-173
-148,16,-161
-149,26,-147
-150,28,-137
-150,30,-124
-150,30,-114
-152,23,-104
-152,25,-96
-152,25,-86
-147,23,-78
-144,11,-74
-144,17,-70
-145,11,-60
-139,2,-59
-138,-4,-51
-134,-7,-44
-131,-10,-38
-131,-11,-31
-127,-13,-29
-124,-16,-25
-118,-21,-19
-114,-24,-16
-106,-21,-16
-102,-16,-14
-96,-10,-13
-94,-3,-11
-90,4,-11
-88,6,-6
-90,9,-7
-90,8,-5
-89,5,-4
-86,2,-2
-87,-7,-2
-85,-11,-3
-81,-20,1
-77,-32,-1
-70,-37,-2
-65,-40,-5
-55,-46,-3
-51,-49,-1
-45,-49,-1
-37,-47,-1
-27,-42,-2
-21,-36,-3
-12,-29,-2
-1,-21,1
5,-15,-1
10,-11,2
19,-10,4
23,-15,9
29,-16,12
34,-19,16
39,-24,18
40,-27,24
47,-37,28
47,-40,31
47,-47,37
44,-45,43
43,-44,46
40,-52,50
41,-55,58
40,-48,62
38,-41,65
32,-38,68
31,-36,76
27,-29,76
19,-28,81
19,-29,87
14,-28,91
17,-31,92
16,-32,90
20,-17,90
24,6,90
31,-11,83
38,-38,82
39,-50,78
49,-58,75
53,-62,72
50,216,60
50,-35,54
44,-16,52
44,-28,50
41,-37,48
37,-52,52
38,-67,55
34,-77,57
35,-87,61
36,-95,63
36,-99,67
36,-101,68
39,-97,70
48,-91,72
47,-75,70
53,-67,71
53,-54,75
57,-40,76
56,-23,78
55,-10,79
58,-1,80
61,8,80
59,14,79
59,12,80
61,17,79
61,14,82
62,12,83
65,0,84
63,-5,83
65,-17,84
64,-25,85
63,-33,83
61,-38,81
63,-47,82
58,-49,79
51,-46,76
47,-45,72
40,-39,69
33,-32,65
24,-27,62
15,-20,57
11,-16,57
4,-15,54
-2,-15,53
-7,-15,48
-7,-16,46
-13,-16,43
-12,-18,40
-17,-17,36
-14,-24,32
-17,-19,28
-17,-28,26
-15,-26,26
-12,-23,24
-9,-16,20
-4,-9,18
0,0,17
7,9,17
16,14,18
19,27,16
25,29,17
32,45,16
37,44,24
42,57,24
47,57,26
49,61,29
52,60,33
54,53,40
61,47,40
62,32,43
66,26,42
68,12,39
69,12,42
66,2,43
67,3,40
61,9,30
59,4,31
56,16,28
57,12,23
51,27,17
44,27,10
36,36,5
28,39,-3
22,40,-9
16,39,-11
9,35,-17
1,35,-22
-3,31,-25
-7,28,-31
-7,26,-36
-11,23,-37
-9,21,-38
-15,23,-38
-12,24,-40
-6,36,-38
-11,36,-37
-10,40,-34
-10,47,-29
-6,46,-23
-4,46,-20
-5,47,-12
5,50,-9
12,49,-3
21,47,-1
31,46,0
39,47,1
51,46,1
57,46,4
62,47,5
63,45,7
67,42,9
65,40,11
65,39,9
63,37,14
60,34,15
61,33,19
57,28,14
56,28,13
56,21,13
52,18,12
51,12,8
48,7,9
48,5,7
46,1,8
48,0,11
46,-1,10
44,0,11
45,4,17
45,6,18
45,11,18
45,14,24
44,19,27
43,25,31
40,26,35
43,33,44
41,30,41
40,33,48
40,28,47
42,30,50
44,24,50
45,19,51
43,17,51
42,12,53
42,8,52
38,5,51
37,1,51
36,0,50
32,-5,49
30,-9,50
23,-15,46
21,-19,48
24,-20,46
22,-22,47
22,-22,47
27,-24,47
24,-22,44
25,-22,38
27,-25,38
25,-19,39
24,-17,39
22,-14,39
21,-11,38
21,-11,39
22,-12,39
22,-9,38
22,-8,37
21,-7,37
23,-7,37
26,-5,34
31,-3,36
32,-1,33
35,0,35
34,3,32
37,8,32
40,11,33
39,14,36
38,15,38
39,17,38
40,18,39
42,19,38
42,20,41
44,17,41
45,19,39
48,19,39
44,19,42
46,18,42
47,16,40
44,15,44
46,17,46
44,21,43
45,18,42
43,22,43
44,18,43
44,16,43
42,15,43
43,17,45
47,11,44
45,11,44
48,7,45
48,0,47
48,-7,46
52,-12,48
53,-19,48
53,-26,45
52,-30,45
53,-39,49
52,-40,52
50,-45,51
52,-43,50
51,-45,50
54,-42,52
52,-40,52
55,-30,54
53,-28,55
57,-24,56
57,-15,54
59,-13,55
61,-7,58
58,-2,59
59,1,59
55,4,63
57,8,63
56,9,61
58,10,63
55,6,60
56,7,60
58,4,62
59,1,58
59,0,54
58,-1,57
61,-3,54
63,-6,51
66,-4,49
65,-4,49
66,-1,47
66,1,46
64,4,44
63,8,42
58,10,42
57,13,42
52,14,38
50,15,39
46,17,38
48,19,34
42,19,37
39,20,33
41,20,33
39,18,32
41,16,32
44,16,30
44,16,29
45,15,30
44,12,28
45,10,26
47,8,28
47,6,26
48,7,25
47,4,24
47,3,24
47,3,22
44,0,25
44,-1,21
43,-5,24
41,-8,20
39,-15,21
38,-16,21
40,-21,21
39,-22,21
41,-26,25
42,-25,23
41,-31,24
36,-29,25
38,-33,24
35,-33,26
32,-31,30
28,-31,29
27,-28,30
26,-26,29
25,-22,27
27,-18,26
31,-14,23
32,-12,22
34,-8,19
35,-5,20
34,-6,20
33,-3,23
33,-1,20
30,-5,23
24,-8,22
23,-11,26
21,-14,23
15,-19,26
15,-24,27
13,-26,29
9,-24,27
11,-25,29
10,-20,24
12,-15,28
15,-10,30
15,-7,26
15,0,30
19,5,27
24,9,27
25,15,25
25,20,25
27,26,27
29,29,26
27,31,25
25,33,25
28,33,25
26,36,25
23,32,23
23,30,24
26,30,21
24,27,21
18,25,24
15,24,28
12,20,28
10,14,30
11,11,33
7,4,32
5,0,29
8,-4,31
5,-9,29
11,-11,31
12,-13,28
17,-15,28
16,-17,28
20,-14,25
21,-12,24
21,-10,21
19,-6,22
17,-9,22
16,-4,19
12,-1,19
9,2,15
9,0,15
0,6,13
-1,7,13
-3,8,11
-7,10,8
-7,14,10
-6,14,4
-6,12,0
-7,9,1
-8,11,-3
-6,10,-8
-7,7,-6
-6,2,-9
-10,0,-14
-8,-5,-11
-9,-7,-11
-10,-8,-12
-11,-14,-13
-12,-19,-12
-14,-20,-13
-13,-23,-11
-11,-23,-13
-10,-23,-13
-9,-19,-15
-9,-18,-17
-5,-16,-14
-3,-14,-18
-1,-10,-16
0,-10,-16
2,-4,-12
4,0,-13
7,0,-13
10,2,-12
12,3,-11
16,6,-10
17,7,-9
17,10,-7
20,10,-10
18,12,-9
21,13,-8
21,14,-8
25,16,-10
25,14,-9
24,14,-10
29,16,-7
30,15,-6
30,16,-6
30,19,-6
31,17,-3
34,19,0
37,23,3
39,20,4
37,21,8
39,20,11
40,19,12
41,19,14
44,19,16
45,15,20
43,10,19
47,8,20
43,8,20
44,6,19
39,4,20
40,3,20
36,6,21
34,6,21
29,7,20
29,6,22
30,9,18
30,10,14
32,10,15
31,13,11
32,13,10
32,18,9
29,21,9
30,23,12
24,25,9
23,29,10
22,33,10
16,37,11
17,38,11
13,40,12
12,41,13
11,36,13
12,36,13
13,31,16
12,26,14
16,23,12
16,17,12
19,14,12
25,9,12
30,3,10
35,0,7
35,-4,7
37,-8,9
37,-9,9
38,-12,12
37,-9,10
40,-11,12
35,-12,14
36,-10,13
32,-11,14
32,-12,18
30,-12,15
29,-12,16
31,-10,16
24,-15,18
24,-16,17
23,-16,13
24,-22,19
23,-23,15
19,-24,11
23,-26,15
25,-28,14
23,-27,9
27,-28,9
26,-31,6
29,-29,4
31,-31,2
31,-30,1
32,-27,-1
29,-23,-1
28,-22,-1
26,-18,0
24,-12,1
25,-9,3
24,-2,2
21,4,4
19,9,3
16,11,5
14,18,6
13,15,7
10,15,8
12,13,10
10,13,7
9,9,11
7,5,9
5,3,8
6,0,6
6,-2,6
6,-4,3
5,-3,0
7,-4,-2
5,-3,-7
7,-3,-7
7,-5,-13
7,-1,-11
7,0,-13
9,2,-10
11,2,-11
12,5,-6
15,1,-3
13,5,-3
17,3,-2
17,-3,6
18,-4,6
14,-6,8
16,-11,10
17,-9,10
17,-11,11
23,-11,10
24,-8,12
26,-3,11
29,2,10
28,4,10
33,12,11
33,19,7
33,23,9
36,29,6
34,33,8
33,38,4
35,37,6
35,37,6
34,39,7
34,34,10
32,30,12
32,24,17
34,17,15
30,14,17
31,8,17
31,0,19
32,-2,21
35,-7,19
35,-7,20
35,-10,22
36,-8,20
36,-9,17
36,-9,22
35,-10,20
30,-9,15
31,-7,19
28,-9,18
22,-9,19
20,-6,17
22,-7,19
16,-8,20
15,-8,19
16,-8,22
16,-10,19
13,-8,25
12,-9,24
14,-9,25
13,-9,25
14,-5,23
11,-2,24
16,0,24
15,3,24
19,6,22
22,9,22
21,13,20
20,23,18
21,24,19
19,27,17
17,32,20
12,33,19
9,39,21
3,38,22
1,41,27
1,39,24
2,40,22
5,39,18
6,37,15
7,33,18
6,31,20
8,28,18
8,25,21
7,23,20
12,18,23
8,13,21
8,7,22
7,6,24
4,5,22
0,2,23
2,0,24
-1,2,22
-4,1,22
-9,0,18
-5,2,16
-7,-2,14
-11,-3,9
-12,-4,6
-10,-8,5
-7,-12,-1
-10,-9,-4
-10,-14,-4
-9,-17,-4
-7,-19,-8
-10,-22,-4
-11,-25,-8
-10,-32,-6
-9,-35,-6
-10,-37,-8
-11,-41,-3
-9,-44,-4
-8,-46,-3
-8,-47,-1
-9,-45,-1
-9,-44,-3
-9,-45,3
-6,-44,1
-2,-42,1
2,-43,3
4,-39,1
9,-34,6
14,-31,9
18,-25,4
21,-21,7
27,-14,6
32,-11,10
36,-2,9
36,0,9
37,4,11
40,6,14
37,9,12
35,9,12
34,9,20
29,11,20
30,11,23
26,10,22
24,7,21
22,11,20
22,10,19
20,7,17
20,6,15
22,3,16
19,2,12
17,3,12
17,2,13
17,2,9
18,4,9
16,4,11
17,8,8
14,7,8
15,9,10
12,11,11
11,11,9
10,12,11
8,11,10
5,13,11
4,9,12
6,7,12
7,4,15
5,1,15
2,2,14
3,0,16
3,-4,13
3,-5,15
7,-10,15
6,-8,18
6,-11,15
9,-12,19
7,-12,19
8,-14,16
7,-17,19
9,-18,19
10,-18,19
11,-17,20
9,-16,23
10,-20,25
8,-22,28
8,-22,29
6,-24,31
3,-25,33
6,-29,31
4,-30,30
3,-29,33
0,-31,31
2,-30,30
2,-30,29
1,-31,30
-4,-31,28
-5,-35,29
-4,-36,28
-3,-39,29
-1,-42,31
-1,-45,28
0,-49,29
3,-54,29
6,-58,27
9,-61,29
9,-60,27
8,-64,31
10,-66,31
12,-67,33
10,-66,32
9,-66,32
8,-63,32
6,-62,34
2,-58,31
3,-57,36
0,-53,34
-1,-50,34
-7,-45,35
-9,-38,35
-12,-32,35
-15,-27,34
-14,-23,31
-19,-17,29
-22,-11,31
-22,-6,33
-23,-2,32
-25,5,32
-23,7,28
-21,12,24
-19,19,22
-15,26,21
-16,34,25
-16,39,27
-16,41,32
-13,44,31
-10,47,29
-8,46,31
-5,44,28
1,45,29
3,39,31
9,37,26
15,32,22
18,23,21
25,15,16
29,5,16
29,-1,14
32,-11,11
31,-20,9
31,-28,7
28,-35,3
24,-37,0
23,-40,-3
20,-42,-5
15,-39,-7
12,-41,-15
12,-37,-16
11,-33,-18
12,-31,-18
11,-35,-15
12,-31,-19
13,-29,-21
17,-34,-15
17,-38,-14
22,-46,-12
23,-50,-9
23,-56,-8
23,-63,-5
22,-72,0
18,-82,0
17,-89,3
11,-94,5
8,-104,10
5,-110,10
3,-113,9
0,-111,13
0,-117,16
-1,-117,17
-3,-121,19
-2,-123,24
-3,-127,28
-5,-131,31
-6,-137,37
-5,-139,39
-8,-144,43
-7,-147,47
-7,-147,44
-7,-145,46
-10,-143,43
-4,-141,43
-5,-135,39
-4,-128,43
-7,-117,40
-11,-110,44
-16,-104,50
-24,-97,56
-33,-93,60
-39,-88,64
-45,-96,67
-52,-97,67
-60,-101,67
-69,-100,65
-79,-91,68
-87,-71,67
-95,-34,65
-100,18,61
-97,84,46
-84,154,39
-58,228,25
-16,287,16
32,339,13
87,397,19
141,467,31
189,546,54
222,624,89
228,694,126
205,751,164
166,792,201
130,816,216
119,833,213
139,840,183
186,843,145
240,840,102
300,849,54
365,888,-3
431,945,-58
482,1006,-98
500,1054,-117
490,1064,-98
459,1029,-52
417,943,15
370,822,100
326,666,190
292,479,274
260,270,355
227,47,432
191,-172,490
157,-370,522
146,-567,527
157,-768,505
181,-980,467
213,-1182,418
251,-1363,370
281,-1533,336
318,-1674,320
351,-1788,314
376,-1864,322
401,-1876,337
412,-1886,360
418,-1902,370
420,-1870,374
423,-1837,366
404,-1833,359
370,-1755,346
324,-1711,321
259,-1636,293
179,-1550,265
104,-1484,234
34,-1377,203
-17,-1299,169
-63,-1212,148
-94,-1143,136
-122,-1100,131
-152,-1076,123
-187,-1077,115
-227,-1095,105
-265,-1108,89
-285,-1095,68
-287,-1060,41
-264,-990,7
-213,-909,-30
-136,-825,-74
-47,-745,-117
40,-675,-156
128,-618,-198
207,-579,-224
266,-546,-245
312,-510,-256
336,-474,-257
344,-435,-251
332,-392,-241
304,-342,-224
268,-293,-200
225,-235,-175
174,-182,-158
122,-123,-142
70,-66,-134
26,-20,-132
-16,13,-139
-53,33,-151
-82,47,-160
-104,50,-170
-123,39,-176
-134,15,-177
-135,-11,-176
-129,-34,-177
-115,-48,-179
-100,-59,-177
-90,-53,-180
-81,-43,-183
-77,-27,-186
-81,-5,-187
-93,9,-188
-113,26,-189
-138,30,-187
-164,30,-189
-196,22,-187
-218,18,-187
-238,15,-186
-250,12,-193
-257,10,-191
-258,10,-189
-251,16,-184
-240,31,-176
-227,52,-163
-211,81,-140
-200,119,-117
-183,151,-94
-173,186,-66
-158,222,-38
-143,252,0
-127,273,31
-107,283,63
-89,284,93
-69,285,124
-49,292,151
-31,303,175
-14,324,196
9,361,210
35,432,210
67,528,205
90,634,192
111,722,176
112,778,168
102,796,152
80,759,127
74,721,86
85,688,37
106,657,-10
138,600,-54
190,460,-88
240,247,-111
281,8,-123
301,-226,-123
297,-437,-117
281,-589,-106
252,-678,-97
229,-709,-92
212,-731,-80
219,-762,-67
254,-833,-62
303,-959,-53
344,-1114,-42
369,-1286,-18
377,-1469,14
354,-1637,58
319,-1764,104
283,-1840,147
256,-1877,187
237,-1893,220
223,-1903,250
206,-1895,275
188,-1871,305
171,-1833,325
153,-1782,344
133,-1726,347
117,-1670,342
99,-1611,330
78,-1553,311
55,-1496,294
32,-1436,266
6,-1380,232
-12,-1320,195
-34,-1252,157
-54,-1180,119
-70,-1102,80
-85,-1018,46
-91,-927,17
-93,-831,-4
-93,-743,-22
-89,-654,-34
-85,-580,-36
-80,-503,-36
-74,-445,-31
-66,-397,-21
-59,-355,-11
-51,-317,4
-46,-293,22
-39,-261,44
-36,-233,65
-31,-213,85
-23,-196,102
-14,-184,116
-5,-175,130
7,-163,143
14,-154,158
31,-146,168
40,-138,175
59,-132,186
70,-123,188
84,-117,187
88,-104,185
92,-94,185
90,-89,186
85,-80,190
71,-78,191
52,-82,194
29,-86,193
2,-98,200
-28,-119,200
-53,-144,201
-77,-177,200
-92,-209,197
-104,-240,194
-107,-264,188
-109,-279,178
-99,-283,172
-80,-269,167
-58,-251,155
-38,-223,147
-17,-193,138
3,-162,125
17,-133,119
26,-105,108
32,-75,98
32,-57,94
27,-50,86
22,-56,79
9,-64,71
-6,-78,67
-23,-101,65
-44,-119,61
-60,-142,57
-73,-170,56
-87,-195,52
-96,-220,52
-100,-235,51
-99,-247,51
-98,-251,48
-88,-252,45
-77,-249,42
-63,-244,40
-49,-237,37
-32,-230,35
-17,-219,32
-8,-214,33
1,-212,37
1,-212,38
-1,-211,39
-7,-210,41
-16,-209,46
-29,-201,49
-40,-189,51
-51,-175,52
-62,-158,51
-75,-138,52
-79,-119,50
-87,-98,48
-89,-76,41
-87,-57,39
-83,-36,32
-77,-16,23
-69,-8,15
-60,1,9
-54,9,3
-46,5,-2
-41,-2,-7
-42,-12,-11
-43,-26,-14
-51,-43,-16
-63,-65,-15
-74,-83,-9
-85,-101,-10
-99,-125,-5
-112,-146,-3
-118,-166,0
-125,-186,5
-131,-209,9
-133,-228,13
-130,-250,20
-124,-267,20
-117,-283,21
-106,-295,23
-94,-301,22
-80,-299,24
-69,-297,25
-61,-293,23
-47,-285,24
-38,-270,18
-24,-259,16
-16,-241,12
-6,-222,13
3,-197,7
10,-175,4
17,-154,-2
23,-134,-5
33,-120,-6
38,-109,-12
43,-98,-12
44,-90,-13
45,-85,-13
48,-82,-12
51,-81,-8
48,-81,-2
47,-80,3
48,-78,10
43,-77,15
42,-75,17
39,-67,19
33,-58,21
30,-52,25
28,-45,26
25,-43,26
24,-48,29
25,-49,33
30,-55,32
35,-59,35
39,-72,37
43,-79,37
45,-97,42
55,-108,44
66,-125,49
73,-137,52
86,-150,57
95,-158,62
106,-167,68
116,-169,75
122,-171,84
133,-173,90
139,-171,95
143,-171,102
147,-173,111
148,-175,123
144,-181,132
144,-190,142
137,-203,148
137,-221,157
136,-235,164
132,-254,168
128,-268,171
125,-285,178
122,-298,181
122,-304,183
119,-314,186
111,-318,187
106,-319,191
104,-320,191
95,-320,189
88,-323,189
82,-322,187
76,-320,186
75,-319,186
72,-317,180
74,-313,177
74,-305,173
77,-290,169
87,-276,162
93,-258,157
102,-239,153
110,-223,148
113,-200,142
117,-178,141
115,-155,136
111,-136,132
107,-120,130
99,-105,128
87,-103,130
77,-100,132
61,-109,137
49,-122,138
37,-136,145
26,-152,145
22,-168,146
11,-185,147
5,-200,144
-1,-213,144
-12,-218,142
-18,-223,136
-21,-216,127
-21,-212,120
-21,-202,110
-18,-191,101
-14,-177,92
-5,-161,84
4,-144,72
11,-125,66
18,-108,56
23,-93,52
27,-75,48
31,-64,44
34,-54,41
32,-38,39
26,-29,38
23,-23,36
15,-18,36
6,-12,38
-7,-5,34
-23,-8,33
-37,-4,30
-50,-1,25
-58,2,18
-66,4,10
-73,13,-1
-71,18,-12
-74,23,-24
-79,29,-31
-85,34,-41
-89,36,-52
-95,35,-62
-101,30,-68
-110,27,-72
-119,21,-77
-126,11,-83
-133,5,-83
-140,-10,-89
-144,-19,-92
-150,-25,-92
-147,-39,-96
-145,-48,-100
-144,-56,-104
-139,-63,-111
-133,-69,-113
-129,-75,-122
-123,-82,-125
-121,-85,-134
-114,-85,-135
-114,-82,-142
-108,-79,-148
-107,-71,-157
-107,-66,-161
-106,-62,-168
-105,-55,-174
-95,-45,-186
-88,-36,-196
-83,-24,-204
-69,-14,-212
-56,-6,-224
-43,0,-234
-22,6,-242
-9,12,-254
14,12,-263
40,8,-273
63,-2,-285
77,-14,-288
96,-29,-294
108,-43,-296
122,-67,-295
131,-94,-292
136,-123,-289
143,-154,-284
143,-183,-286
148,-213,-280
154,-240,-277
162,-259,-275
165,-277,-276
171,-298,-273
171,-306,-273
179,-325,-267
177,-337,-260
181,-354,-253
180,-377,-243
180,-398,-236
175,-427,-226
171,-452,-212
162,-484,-205
149,-513,-196
136,-540,-188
119,-574,-179
100,-596,-172
83,-623,-166
62,-642,-161
40,-651,-156
19,-652,-154
1,-647,-154
-15,-643,-156
-27,-632,-160
-34,-611,-168
-41,-591,-180
-41,-571,-189
-40,-556,-204
-41,-547,-217
-34,-542,-233
-23,-546,-244
-13,-554,-262
6,-569,-275
27,-587,-288
48,-606,-297
74,-628,-308
99,-647,-308
127,-674,-306
151,-697,-303
172,-718,-294
188,-732,-281
198,-745,-269
202,-757,-252
199,-764,-233
192,-763,-217
177,-775,-198
162,-778,-178
147,-791,-160
133,-804,-148
123,-818,-136
117,-838,-126
113,-859,-113
113,-877,-106
119,-892,-97
128,-902,-93
138,-909,-88
154,-912,-84
176,-912,-82
190,-907,-82
212,-903,-78
234,-895,-79
250,-884,-85
267,-877,-87
279,-864,-88
292,-845,-90
299,-818,-93
306,-797,-96
308,-778,-99
309,-765,-99
313,-758,-95
309,-756,-96
311,-761,-93
313,-766,-87
318,-775,-84
326,-783,-81
338,-781,-77
349,-775,-75
368,-761,-73
384,-746,-75
406,-724,-77
426,-703,-83
446,-670,-92
467,-629,-102
481,-596,-111
499,-565,-120
502,-533,-137
506,-511,-150
496,-493,-163
485,-479,-174
464,-466,-187
440,-450,-200
418,-435,-209
391,-418,-221
370,-393,-228
360,-371,-240
348,-332,-251
345,-286,-269
347,-247,-289
352,-209,-303
366,-163,-324
381,-127,-339
398,-108,-361
412,-110,-375
431,-119,-389
447,-138,-404
455,-156,-415
465,-192,-421
472,-224,-428
480,-255,-430
478,-269,-426
474,-277,-429
471,-277,-429
471,-272,-425
472,-265,-423
476,-247,-419
473,-228,-423
472,-213,-421
480,-199,-424
488,-174,-430
498,-152,-435
509,-131,-450
516,-97,-464
521,-62,-476
521,-29,-493
511,2,-503
491,33,-515
464,64,-524
431,96,-530
389,130,-538
345,168,-543
300,208,-547
253,249,-556
207,288,-564
164,330,-580
126,367,-590
92,406,-609
58,438,-627
25,467,-651
-2,489,-680
-23,507,-703
-44,519,-730
-59,527,-751
-65,532,-777
-63,540,-792
-59,548,-812
-49,553,-829
-32,555,-837
-18,559,-846
-7,560,-854
0,562,-862
5,569,-863
11,579,-868
19,586,-871
25,596,-876
34,595,-884
42,596,-892
55,592,-903
72,585,-912
85,573,-925
108,555,-934
132,539,-942
155,525,-943
179,516,-942
197,512,-930
216,517,-916
223,528,-900
226,549,-879
227,571,-856
229,601,-830
231,631,-811
230,665,-788
225,694,-770
219,717,-756
214,734,-746
208,745,-739
197,748,-743
184,747,-750
175,736,-752
168,729,-765
167,709,-779
160,692,-790
156,682,-801
140,671,-806
119,668,-810
97,668,-807
67,672,-805
36,676,-803
0,681,-797
-34,688,-793
-64,696,-790
-96,700,-787
-116,715,-785
-129,721,-783
-142,732,-787
-146,750,-786
-143,763,-790
-139,779,-789
-130,787,-792
-119,794,-792
-109,792,-792
-104,786,-784
-110,785,-776
-120,768,-762
-139,763,-751
-159,745,-731
-181,731,-716
-207,725,-697
-233,712,-671
-254,717,-646
-267,716,-616
-276,725,-582
-276,744,-542
-264,759,-501
-250,778,-454
-227,785,-406
-209,785,-350
-193,787,-290
-177,774,-232
-167,753,-165
-168,744,-92
-178,727,-6
-205,731,81
-232,730,173
-271,744,269
-315,771,359
-362,790,443
-407,817,516
-450,842,572
-488,865,616
-530,889,642
-570,900,655
-605,906,659
-632,906,652
-649,902,642
-648,896,623
-639,894,601
-621,892,571
-601,907,549
-579,927,521
-537,947,476
-433,965,409
-272,978,328
-66,995,242
156,1009,162
361,1001,108
516,974,81
607,932,99
617,879,156
546,830,256
423,782,369
275,727,485
113,666,586
-56,610,681
-224,563,754
-374,520,804
-502,477,822
-599,429,822
-658,386,795
-701,348,756
-744,327,708
-788,323,670
-842,346,638
-912,397,613
-989,461,601
-1080,534,599
-1174,598,606
-1275,654,615
-1379,698,625
-1463,714,630
-1531,705,629
-1566,672,618
-1572,633,601
-1536,605,580
-1480,589,551
-1415,578,535
-1362,576,533
-1307,588,540
-1260,615,553
-1223,641,579
-1200,674,615
-1192,700,658
-1194,717,710
-1199,722,761
-1203,715,805
-1204,689,841
-1182,644,862
-1137,583,867
-1079,522,854
-1011,466,830
-949,427,802
-889,398,776
-841,392,747
-807,406,731
-790,457,718
-785,518,710
-782,586,713
-781,643,718
-768,677,721
-736,689,718
-687,684,703
-626,660,686
-564,618,675
-502,551,664
-450,476,655
-407,397,658
-377,330,667
-355,284,684
-346,254,704
-346,245,732
-354,251,769
-374,265,805
-390,275,834
-398,278,862
-403,270,871
-398,252,861
-390,220,840
-392,168,797
-399,107,743
-393,50,673
-377,10,589
-345,-2,498
-294,12,403
-234,48,320
-178,111,252
-121,185,226
-70,263,220
-33,325,234
-15,355,260
-12,356,283
-13,338,303
-16,323,311
-12,308,309
-6,290,292
-5,276,283
-25,240,281
-40,163,273
2,63,233
110,-48,162
225,-186,96
315,-355,50
367,-581,38
389,-836,54
403,-1081,79
410,-1289,101
417,-1454,125
414,-1570,144
408,-1635,153
400,-1638,159
392,-1545,157
378,-1365,141
355,-1111,116
327,-807,86
290,-487,46
243,-159,-4
200,169,-54
159,497,-115
101,818,-172
31,1109,-227
-56,1366,-270
-161,1574,-303
-268,1729,-323
-369,1845,-334
-459,1913,-337
-533,1946,-336
-590,1945,-332
-625,1915,-323
-643,1875,-313
-634,1827,-306
-609,1788,-301
-575,1746,-295
-536,1706,-296
-500,1664,-293
-464,1617,-298
-435,1571,-299
-412,1518,-300
-397,1471,-298
-386,1429,-297
-384,1400,-294
-388,1386,-288
-394,1393,-280
-405,1419,-279
-419,1452,-286
-428,1483,-296
-437,1504,-301
-449,1527,-306
-464,1536,-311
-488,1533,-318
-511,1523,-325
-534,1515,-337
-552,1505,-346
-572,1498,-356
-581,1502,-367
-577,1511,-375
-566,1539,-385
-545,1587,-380
-522,1657,-371
-500,1744,-350
-484,1844,-330
-481,1953,-295
-480,2058,-260
-490,2162,-233
-509,2258,-206
-538,2339,-188
-566,2410,-182
-587,2459,-190
-604,2493,-220
-610,2521,-263
-602,2540,-321
-570,2548,-385
-485,2546,-448
-355,2545,-504
-202,2548,-543
-50,2571,-555
82,2631,-539
188,2723,-495
255,2836,-427
282,2971,-351
264,3131,-287
205,3296,-232
96,3439,-198
-60,3534,-194
-259,3568,-212
-461,3505,-254
-650,3363,-311
-809,3183,-364
-934,3009,-402
-1019,2847,-425
-1042,2713,-422
-1007,2656,-399
-929,2694,-364
-827,2792,-320
-719,2918,-283
-610,3078,-255
-503,3302,-247
-416,3550,-262
-345,3771,-293
-287,3920,-328
-241,3990,-372
-192,3979,-421
-153,3919,-449
-137,3837,-449
-133,3739,-426
-132,3648,-391
-129,3596,-350
-121,3609,-313
-116,3689,-280
-125,3800,-257
-145,3936,-251
-191,4074,-259
-250,4187,-278
-314,4247,-302
-379,4244,-323
-436,4197,-335
-479,4110,-332
-514,3994,-313
-528,3853,-281
-527,3681,-232
-509,3534,-167
-477,3433,-109
-430,3388,-69
-371,3337,-50
-320,3265,-43
-302,3180,-44
-308,3073,-44
-317,2936,-53
-333,2795,-66
-365,2684,-67
-405,2580,-59
-437,2468,-43
-445,2344,-24
-432,2213,5
-403,2086,40
-368,1961,77
-330,1869,110
-297,1823,138
-268,1805,155
-242,1809,155
-215,1827,139
-195,1835,117
-184,1819,98
-170,1785,84
-160,1751,73
-152,1717,68
-149,1696,77
-145,1674,97
-128,1654,127
-109,1630,161
-91,1614,196
-88,1611,222
-90,1603,246
-93,1595,262
-102,1566,267
-106,1521,261
-111,1461,248
-109,1389,223
-101,1313,196
-94,1238,162
-83,1176,131
-75,1127,104
-75,1109,87
-84,1129,91
-110,1178,111
-137,1239,147
-169,1297,196
-201,1353,243
-219,1384,288
-227,1389,315
-231,1362,326
-228,1307,331
-220,1231,323
-209,1140,310
-198,1044,296
-178,946,279
-150,856,262
-126,784,245
-109,732,228
-112,702,223
-132,682,222
-148,677,224
-172,674,217
-187,673,210
-197,667,197
-210,665,180
-212,657,152
-205,649,125
-196,633,97
-176,615,73
-148,596,53
-119,583,46
-87,575,45
-69,574,59
-57,569,77
-52,558,103
-48,543,129
-44,517,150
-39,488,165
-33,460,176
-26,431,181
-16,408,178
0,386,173
18,360,161
45,330,149
72,297,130
95,257,116
125,214,99
143,167,91
161,121,82
163,89,79
153,68,75
142,58,71
129,59,57
120,61,40
117,64,18
122,64,-10
124,61,-31
132,57,-52
145,47,-69
162,29,-89
177,12,-96
181,-10,-106
179,-32,-110
168,-47,-119
159,-57,-124
144,-57,-135
128,-53,-147
112,-48,-152
104,-37,-157
102,-26,-152
109,-19,-139
123,-20,-118
145,-30,-95
172,-61,-61
198,-116,-28
221,-182,4
232,-249,27
235,-306,33
225,-353,16
202,-384,-12
171,-399,-61
132,-393,-112
86,-373,-169
37,-336,-227
-11,-295,-283
-60,-248,-333
-105,-202,-374
-148,-160,-402
-193,-126,-417
-231,-105,-427
-258,-91,-434
-273,-87,-436
-275,-93,-441
-252,-109,-445
-213,-133,-441
-167,-160,-423
-112,-182,-394
-55,-195,-354
1,-199,-308
47,-202,-257
78,-206,-211
94,-194,-165
105,-175,-123
109,-142,-86
99,-102,-55
93,-62,-27
85,-26,-10
74,9,-5
65,39,7
53,68,12
47,86,12
48,92,13
55,94,15
75,86,28
106,78,42
149,72,63
202,60,92
262,49,125
329,36,165
399,37,204
464,41,242
519,57,272
568,70,298
602,94,317
622,121,329
623,149,325
618,177,320
601,201,308
579,220,295
555,231,281
530,231,262
500,222,242
469,199,224
435,168,204
406,128,192
373,83,176
341,37,162
314,-13,158
283,-65,151
258,-115,144
235,-157,136
213,-194,130
197,-220,124
189,-237,113
186,-241,100
185,-231,89
196,-207,73
207,-172,59
220,-135,43
235,-84,26
251,-31,13
266,18,1
277,67,-6
284,109,-10
290,141,-7
291,162,0
295,170,10
295,168,21
289,159,31
282,143,40
269,116,53
249,82,68
220,41,80
186,-2,85
148,-41,95
111,-82,96
81,-113,94
50,-138,88
25,-157,80
8,-164,67
-4,-169,48
-11,-171,33
-16,-166,15
-16,-156,-1
-15,-142,-23
-11,-126,-39
-12,-105,-52
-13,-85,-61
-22,-67,-70
-33,-56,-76
-48,-42,-74
-65,-33,-76
-86,-18,-76
-106,-5,-72
-129,10,-71
-155,22,-72
-174,30,-70
-195,34,-69
-213,26,-66
-225,20,-62
-233,8,-58
-240,-8,-56
-241,-27,-58
-235,-53,-53
-229,-78,-51
-220,-96,-48
-213,-111,-46
-203,-122,-40
-196,-124,-40
-192,-117,-38
-183,-104,-41
-177,-80,-40
-168,-52,-35
-161,-25,-32
-147,4,-22
-138,34,-17
-124,66,-13
-112,92,-8
-99,112,-3
-85,125,1
-67,124,2
-60,123,-1
-49,108,4
-40,97,5
-38,74,11
-42,53,12
-51,37,18
-61,29,19
-75,28,15
-90,30,13
-101,35,11
-108,42,8
-116,51,4
-123,54,0
-124,52,-2
-126,52,-7
-129,62,-8
-129,51,-9
-123,38,-1
-122,44,4
-128,56,9
-116,35,13
-110,53,15
-99,55,20
-80,66,21
-63,74,21
-52,85,25
-37,73,29
-24,77,28
-10,64,27
-1,58,32
6,41,36
13,31,33
21,18,31
23,13,28
29,6,30
28,4,30
31,0,30
36,-4,29
39,-6,29
42,-8,26
39,-3,19
43,-6,16
47,-12,9
52,-17,0
56,-17,-10
59,-21,-18
61,-22,-27
59,-25,-34
55,-29,-38
46,-30,-42
32,-29,-43
21,-24,-46
13,-20,-47
1,-18,-53
-3,-9,-50
-7,5,-52
-3,23,-49
5,36,-55
16,45,-60
32,51,-63
47,54,-64
66,63,-73
89,64,-75
106,79,-75
127,76,-72
141,66,-74
157,46,-74
166,35,-71
177,28,-68
179,21,-68
182,55,-59
181,96,-57
175,126,-54
165,152,-53
157,179,-46
145,193,-38
129,208,-35
109,219,-26
85,227,-16
58,226,-9
34,217,-1
13,204,11
-11,188,13
-32,165,23
-53,144,29
-68,119,34
-80,96,43
-94,74,48
-104,61,51
-111,57,52
-115,56,54
-118,64,57
-120,77,56
-125,98,51
-130,124,46
-131,151,50
-137,179,50
-144,205,53
-153,230,59
-157,250,63
-161,267,70
-160,281,75
-150,294,78
-144,310,83
-133,317,87
-125,317,95
-115,315,97
-110,314,103
-104,308,103
-101,295,109
-107,285,111
-112,270,111
-121,249,113
-132,228,109
-141,199,106
-145,171,106
-145,136,99
-146,98,98
-144,61,94
-135,23,91
-125,-20,88
-114,-59,83
-99,-95,78
-88,-130,79
-73,-154,76
-64,-178,74
-51,-192,73
-37,-198,78
-24,-200,75
-10,-193,72
4,-183,73
21,-167,71
37,-151,68
50,-134,70
67,-117,68
78,-97,67
89,-81,67
95,-69,66
101,-55,60
108,-51,60
112,-46,53
109,-38,47
109,-36,42
106,-30,33
104,-31,24
103,-28,14
96,-19,4
90,-15,-6
87,-15,-14
83,-14,-24
75,-12,-30
69,-5,-38
62,-7,-41
56,-3,-44
47,-9,-44
33,-7,-46
22,-5,-45
5,-11,-45
-11,-15,-45
-36,-16,-46
-59,-19,-39
-84,-20,-40
-107,-26,-38
-128,-24,-42
-148,-32,-45
-164,-36,-47
-175,-24,-56
-183,-38,-57
-188,-36,-61
-187,-24,-67
-186,-24,-70
-178,-10,-75
-170,-14,-83
-159,-11,-86
-153,7,-88
-154,-10,-87
-156,-12,-90
-164,-1,-90
-183,-13,-83
-200,-16,-78
-222,-24,-75
-236,-33,-69
-246,-28,-68
-253,-48,-68
-248,-52,-77
-238,-59,-84
-230,-59,-93
-211,-47,-94
-198,-40,-89
-187,-24,-87
-185,-8,-76
-179,6,-68
-184,24,-60
-182,39,-54
-174,52,-54
-180,74,-54
-198,79,-57
-204,89,-54
-210,95,-64
-212,96,-68
-224,99,-78
-238,98,-85
-251,98,-94
-262,92,-107
-263,87,-119
-255,80,-132
-242,73,-142
-225,69,-157
-198,73,-165
-167,89,-175
-134,108,-172
-102,128,-165
-73,144,-161
-51,158,-155
-25,162,-134
-8,160,-111
7,166,-100
16,177,-90
27,196,-78
31,218,-66
36,249,-58
38,293,-46
39,324,-37
38,348,-31
42,361,-31
46,359,-32
54,348,-28
66,320,-26
72,285,-18
78,247,-10
86,203,-5
98,169,-2
111,141,2
120,133,12
129,134,11
139,148,16
144,164,19
155,175,25
163,180,20
161,181,30
153,178,38
142,167,46
132,148,60
121,132,65
110,115,72
97,86,78
87,79,84
75,86,79
71,129,78
62,152,68
55,163,55
46,171,41
43,170,31
39,161,20
33,154,7
34,149,4
35,137,0
39,132,-1
48,124,0
61,113,2
79,107,5
99,106,9
120,106,16
139,113,17
155,128,23
160,144,36
151,164,48
136,174,63
108,183,80
76,188,98
55,183,117
37,182,126
22,176,132
23,165,129
34,158,127
53,143,115
84,134,106
113,125,83
148,120,68
182,112,51
203,107,38
214,104,28
214,107,18
208,103,14
199,93,9
181,83,9
165,67,8
147,50,5
129,37,0
114,25,-3
104,8,-8
87,-4,-16
82,-17,-25
74,-32,-29
80,-43,-37
82,-56,-45
82,-65,-48
86,-76,-55
83,-85,-61
80,-91,-62
72,-91,-63
64,-83,-67
56,-76,-70
47,-69,-71
36,-66,-74
30,-63,-76
20,-62,-79
15,-68,-83
8,-72,-89
7,-76,-88
2,-84,-91
6,-93,-89
11,-102,-91
16,-115,-88
27,-115,-91
38,-118,-87
53,-123,-83
65,-128,-82
75,-133,-76
84,-137,-72
93,-144,-61
95,-149,-56
96,-154,-45
89,-160,-38
77,-173,-30
62,-188,-23
41,-205,-21
17,-228,-20
-4,-244,-13
-25,-256,-8
-53,-269,2
-77,-269,11
-101,-268,30
-123,-264,59
-145,-261,85
-155,-260,118
-165,-256,147
-169,-256,179
-171,-257,205
-173,-260,228
-162,-252,249
-157,-240,266
-153,-222,275
-147,-196,279
-139,-164,278
-131,-133,269
-137,-110,263
-140,-96,246
-145,-84,224
-154,-73,204
-159,-71,181
-163,-70,159
-169,-68,127
-174,-70,103
-183,-68,72
-181,-64,42
-175,-61,17
-170,-52,0
-168,-43,-18
-165,-32,-20
-158,-17,-25
-154,-13,-28
-144,-9,-26
-133,-9,-16
-116,-19,-10
-96,-31,1
-78,84,9
-51,51,25
-35,18,37
-15,25,49
-2,32,60
9,32,74
26,28,86
42,17,90
53,-8,98
67,-23,99
71,-27,97
75,-19,93
75,-3,90
77,10,86
81,18,80
85,22,77
92,10,74
99,41,68
109,104,50
112,131,35
116,130,23
121,127,20
120,114,13
122,85,7
114,50,-3
105,10,-8
95,-31,-18
85,-47,-32
73,-57,-44
65,-42,-58
57,-24,-68
53,-4,-78
52,8,-84
57,15,-87
63,6,-90
77,-29,-97
86,-48,-102
96,-59,-109
107,-49,-106
119,-40,-108
129,-15,-101
141,21,-94
148,45,-82
156,67,-69
158,85,-57
162,88,-52
156,103,-58
155,98,-61
148,91,-67
140,76,-77
132,55,-80
123,39,-85
108,20,-91
96,8,-97
80,10,-102
66,-3,-102
49,-7,-109
38,-8,-114
24,-39,-115
17,-31,-118
11,-46,-118
9,-45,-120
8,-52,-128
13,-60,-134
19,-60,-135
28,-74,-138
43,-80,-141
55,-77,-144
60,-79,-146
72,-74,-146
73,-72,-143
74,-68,-135
76,-62,-135
74,-62,-126
74,-58,-125
70,-63,-123
77,-70,-118
82,-74,-115
83,-74,-114
93,-66,-115
104,-69,-113
115,-78,-116
121,-77,-115
127,-93,-109
138,-93,-104
139,-103,-99
142,-98,-91
145,-96,-74
144,-79,-58
138,-71,-43
134,-48,-24
131,-37,-5
122,-13,9
115,6,28
107,23,45
103,37,58
98,49,67
101,64,78
100,73,86
104,81,87
107,78,91
116,73,99
127,70,101
132,63,106
143,61,106
148,54,108
156,49,113
164,47,115
168,35,118
174,29,124
177,24,129
179,23,129
179,19,132
182,19,132
181,16,131
177,9,131
175,4,130
172,-3,126
166,-14,123
158,-26,117
145,-42,111
128,-56,103
109,-70,98
86,-81,94
63,-91,89
45,-103,89
17,-106,83
2,-108,79
-9,-110,78
-15,-105,79
-22,-96,76
-22,-87,77
-22,-75,80
-12,-60,81
-6,-48,88
0,-42,92
8,-37,99
18,-32,106
28,-31,111
33,-27,115
38,-22,118
44,-19,122
47,-11,125
50,-11,130
52,-11,128
56,-14,131
56,-16,130
59,-19,128
60,-26,121
60,-30,113
59,-36,101
58,-44,91
56,-47,80
53,-51,70
54,-55,59
53,-62,47
57,-61,38
59,-64,35
62,-68,30
67,-67,26
67,-65,24
70,-61,21
74,-54,21
76,-52,21
73,-48,20
73,-45,22
66,-42,24
58,-44,25
49,-47,29
42,-50,27
30,-55,25
22,-60,22
14,-61,20
5,-63,13
0,-60,11
-2,-56,8
-5,-52,0
-12,-42,-5
-12,-37,-7
-9,-29,-12
-9,-23,-13
-7,-20,-22
-8,-14,-24
-5,-7,-26
-6,-3,-32
-6,1,-36
-10,5,-42
-9,11,-42
-16,15,-45
-20,18,-46
-22,20,-49
-27,21,-47
-34,19,-47
-38,22,-49
-41,20,-44
-45,19,-38
-46,23,-36
-44,22,-36
-41,26,-34
-38,32,-31
-27,33,-28
-17,34,-27
-8,29,-29
4,28,-26
11,26,-24
16,27,-23
22,27,-23
26,25,-22
24,28,-21
23,29,-23
18,26,-21
13,25,-18
9,21,-20
0,20,-19
-4,16,-17
-12,13,-13
-17,14,-6
-17,10,-11
-20,4,-9
-15,-3,-8
-16,-9,-5
-15,-12,-9
-10,-13,-7
-2,-19,-2
2,-23,-3
8,-24,-1
14,-22,1
20,-22,2
25,-22,2
26,-16,3
31,-16,7
30,-12,10
28,-14,7
29,-13,3
25,-13,4
20,-8,-1
14,-6,-2
8,-5,-2
7,0,-6
1,1,-2
0,3,-6
-2,6,-5
-4,8,-6
-8,5,-5
-11,9,-3
-11,8,0
-14,8,0
-12,6,4
-16,5,1
-10,0,1
-8,-2,2
-4,-4,4
0,-5,2
5,-8,1
5,-9,3
8,-8,3
13,-6,3
10,-4,3
10,3,3
6,7,1
2,8,3
-5,12,-1
-9,14,3
-15,18,0
-19,18,2
-24,18,0
-25,15,0
-26,10,2
-28,7,2
-26,5,4
-25,0,2
-23,-3,1
-19,-10,4
-17,-11,4
-12,-10,1
-8,-12,1
-7,-12,0
-1,-11,0
3,-10,1
1,-5,-4
6,-2,0
5,0,-1
5,0,-5
7,0,-3
5,2,-8
7,3,-8
3,3,-6
1,5,-7
2,8,-7
-1,11,-6
-5,11,-4
-8,8,-3
-8,7,1
-10,7,2
-10,3,0
-12,0,5
-11,0,2
-11,-4,3
-7,-6,0
-5,-10,1
-4,-13,0
-1,-14,3
3,-11,2
3,-11,2
8,-5,2
11,-3,0
12,1,4
12,4,2
10,5,2
10,6,0
11,6,3
10,5,2
9,5,7
7,3,6
7,4,7
6,3,5
6,4,5
5,6,7
7,6,6
8,3,3
6,-1,0
8,1,2
12,1,0
17,1,1
11,5,-1
11,7,1
5,5,0
4,10,0
-3,8,3
-4,8,7
-11,5,7
-15,8,7
-14,8,8
-8,7,9
-2,6,8
4,7,5
15,8,3
19,7,0
26,8,2
31,5,4
30,3,6
29,5,6
25,1,6
21,-1,5
14,0,5
9,-2,5
1,-1,4
-6,2,1
-10,4,1
-12,4,0
-15,7,-2
-14,9,-1
-15,9,-1
-14,9,-3
-13,9,0
-12,8,-2
-9,7,-2
-9,9,-1
-7,9,0
-3,4,0
-3,6,-1
0,7,3
1,3,1
2,2,0
3,0,-1
3,2,0
6,-2,0
6,-2,0
5,0,0
7,0,-1
5,0,1
4,2,0
5,6,0
3,6,-1
4,9,0
1,9,-2
0,10,0
-6,12,0
-7,10,3
-12,9,-1
-12,9,1
-11,6,2
-10,4,4
-11,4,7
-4,5,9
1,7,6
2,8,7
9,6,5
12,7,4
19,9,2
14,8,3
15,8,2
13,8,2
13,9,2
9,11,3
7,9,2
5,10,1
4,10,1
4,11,-1
3,7,0
2,11,0
4,9,0
7,9,-3
6,10,-1
8,9,-2
8,7,-3
7,4,-2
8,4,-5
9,0,-1
6,-2,0
7,-5,-1
4,-4,-3
3,-5,-4
3,-8,-2
-1,-10,-5
-2,-10,-4
-2,-8,-4
0,-9,-3
-7,0,-7
-6,3,-7
-6,4,-6
-8,5,-5
-8,7,-5
-12,11,-7
-10,10,-10
-11,11,-8
-11,12,-7
-11,10,-4
-9,12,-5
-7,10,-6
-4,9,-2
-2,9,-2
-3,6,-4
-2,7,0
-1,4,1
-2,1,0
-2,0,4
-1,-2,3
-7,-2,3
-4,0,4
-4,0,0
-6,2,0
-4,3,1
-4,3,-2
-2,6,-1
0,4,0
0,4,0
2,6,0
6,8,4
5,5,2
8,1,1
7,1,4
10,-3,6
9,-3,7
9,-3,8
4,-2,6
6,-2,7
1,0,5
2,-2,5
5,-3,4
3,2,3
4,2,0
6,3,-4
5,7,-7
5,10,-2
3,11,-4
0,11,-5
-5,11,-4
-8,10,-4
-15,8,0
-16,5,2
-19,4,2
-15,3,4
-14,4,3
-6,6,0
5,5,-3
14,3,-5
19,1,-6
23,2,-2
27,1,0
23,-3,2
19,-2,3
15,-3,5
5,-3,5
2,-8,5
-4,-2,3
-5,1,6
-10,4,1
-9,9,2
-9,7,1
-4,12,-1
-4,14,-3
1,14,-2
3,12,-1
5,10,-4
5,9,0
6,9,2
5,8,3
6,3,7
4,1,7
5,1,7
4,-3,6
4,-5,5
4,-8,8
3,-8,2
3,-10,1
3,-4,2
4,-3,2
5,-3,1
2,-3,0
6,-3,-1
3,-4,1
3,-1,0
4,0,1
3,1,3
0,3,1
-1,3,1
-3,4,0
-5,6,3
-4,9,5
-3,11,4
-2,10,4
-1,10,4
3,8,5
6,5,6
7,5,4
9,0,6
9,-4,5
9,-3,5
14,-9,6
10,-8,8
7,-8,4
4,-5,5
0,0,3
0,1,6
-1,4,6
-1,6,2
3,5,3
3,8,3
0,6,0
6,2,3
8,3,2
11,-1,5
14,0,3
13,0,1
15,0,3
16,0,4
15,0,1
12,0,0
12,0,1
8,-4,4
8,0,-1
7,-2,-1
4,-1,0
5,-1,-4
5,0,-3
6,1,-5
5,1,-1
7,-1,-2
9,-3,-2
8,1,-2
6,1,-3
6,0,-2
4,3,-2
2,4,-4
4,2,-2
2,3,0
2,4,0
2,3,-1
1,1,0
1,3,0
5,6,0
4,3,1
4,4,3
9,4,2
8,4,3
7,7,0
12,6,3
11,6,4
12,7,5
12,6,6
10,3,8
10,4,7
9,2,6
8,1,7
5,3,6
7,0,4
7,-1,3
5,0,2
4,1,3
4,2,2
3,3,0
3,5,2
4,6,1
3,7,3
8,8,0
12,7,-1
10,10,0
9,11,0
11,13,-3
6,15,-2
3,16,-3
0,11,0
-2,11,0
-13,4,2
-16,5,4
-14,2,4
-17,-1,3
-7,1,1
0,-3,0
7,0,-3
15,2,-4
24,3,0
27,1,-2
29,0,4
26,-1,3
22,0,5
17,-1,10
10,2,7
7,0,8
-1,2,11
-4,6,5
-5,6,2
-3,8,1
-4,8,1
-3,7,-2
2,6,-2
6,5,-5
7,4,-4
11,3,-4
9,1,-2
12,5,-2
9,5,-3
9,3,-2
10,3,-2
8,0,-3
6,-1,-4
6,-2,-1
6,-5,0
5,-6,-4
4,-6,-4
5,-7,-7
8,-5,-5
11,-3,-4
9,-3,-2
9,-2,-3
14,0,-4
16,0,-4
18,2,-1
22,1,0
19,2,0
24,4,4
21,5,2
18,6,6
17,3,8
15,3,11
9,6,15
6,1,15
3,0,16
3,-3,13
2,2,13
5,3,12
7,2,12
10,4,10
9,5,5
14,4,5
14,4,7
16,3,8
17,0,3
13,-2,4
14,-2,4
13,-2,5
14,-7,4
14,-7,7
13,-5,2
16,-7,3
13,-9,2
12,-7,5
13,-8,5
10,-4,5
8,-5,3
7,-3,0
7,-4,3
6,-2,1
4,-5,-2
5,-3,1
3,-5,0
5,-3,-2
5,-3,-1
7,-2,-4
10,0,0
10,0,-1
13,-2,-1
11,1,-3
9,0,-1
9,2,-3
8,1,-2
5,4,-3
2,5,-3
4,4,-2
1,5,1
0,8,0
0,12,-5
-1,7,1
1,9,2
0,9,1
3,5,2
2,1,4
1,3,1
1,2,5
4,4,3
7,1,3
8,1,1
9,2,4
12,0,4
13,0,2
11,4,0
12,4,4
14,3,2
15,4,5
12,3,1
12,3,0
12,5,1
12,4,3
9,5,3
7,2,2
5,0,2
5,4,0
3,-2,3
2,4,2
0,3,6
4,3,0
3,4,3
5,5,3
6,5,5
10,6,-1
9,8,-3
11,8,-2
11,9,-3
6,7,-6
4,8,-9
2,6,-4
-1,6,-2
-6,11,2
-9,11,4
-14,11,7
-11,12,3
-6,14,3
1,17,6
7,16,3
17,16,1
29,14,0
32,14,1
35,12,2
38,12,0
38,9,1
36,5,1
32,6,0
28,2,0
23,0,0
20,3,0
15,0,0
11,-1,0
11,-1,-1
8,0,0
6,-2,3
7,0,2
7,-1,1
5,1,2
3,6,1
5,4,1
4,3,3
3,2,5
4,2,-1
3,2,3
4,0,3
4,0,-1
5,-1,2
4,1,-1
6,-1,0
5,-2,-1
6,-2,2
7,0,-1
6,-1,-1
7,-3,0
7,-2,-2
5,-3,1
6,0,-1
6,-3,-3
6,1,0
5,0,0
1,4,0
1,2,1
0,2,1
3,2,2
0,3,1
1,3,1
1,4,2
2,3,3
9,5,3
8,4,6
13,9,2
15,13,1
21,7,3
22,6,4
22,6,4
22,3,7
23,3,7
24,0,3
22,-3,7
20,1,5
18,-1,8
18,-1,5
15,1,5
17,0,2
15,2,6
14,4,5
17,5,3
18,3,4
15,6,0
15,5,3
14,3,0
14,1,2
13,4,1
15,3,0
11,0,1
14,1,1
13,2,-1
12,-1,-1
9,-1,2
8,-4,2
8,0,1
8,-2,0
5,-5,0
4,-1,0
1,0,1
2,0,0
-4,2,0
-2,4,0
-1,3,0
-2,4,3
0,2,3
-3,7,1
0,6,0
0,5,3
0,3,3
1,3,0
6,2,2
7,3,3
9,-1,3
9,0,2
6,0,4
7,-2,4
9,0,4
11,2,4
13,0,4
9,1,2
10,1,3
14,0,6
11,3,3
11,3,6
11,2,4
11,4,5
11,1,2
12,1,4
7,1,1
11,0,5
9,4,5
7,6,3
8,2,3
7,4,2
5,0,2
4,1,2
4,3,2
5,2,1
4,1,1
4,4,0
4,1,2
3,4,0
4,3,-1
0,4,1
0,6,2
0,4,1
-2,5,3
0,6,4
-2,4,1
0,9,3
-1,7,2
0,4,3
2,5,1
1,7,4
6,4,4
5,3,3
7,1,2
8,1,2
8,0,0
9,2,0
8,2,2
9,0,1
7,0,1
8,0,2
9,-2,1
8,-1,2
7,-4,2
7,-2,4
7,0,4
7,-2,3
7,1,2
8,4,-1
7,7,2
2,7,0
0,8,0
-3,7,3
-6,7,2
-8,9,4
-9,8,2
-14,10,3
-14,7,6
-12,9,6
-7,11,6
-1,6,5
7,10,6
10,15,2
18,10,0
24,6,1
25,6,3
28,2,0
27,2,3
24,1,4
19,0,2
16,-5,2
10,-1,3
7,-2,5
2,-3,2
-1,-6,5
-1,-3,5
-2,-2,3
-1,0,4
1,-3,2
1,-1,4
0,-1,1
1,-4,-2
3,-5,0
4,-2,-2
4,-4,-2
7,-3,-5
6,-6,-4
5,-9,-1
7,-7,-3
5,-7,-3
5,-8,-2
3,-5,-3
4,-7,0
2,-7,0
1,-7,-1
1,-8,2
1,-6,0
0,-9,2
-3,-5,1
-3,-5,1
-4,-4,0
-3,-5,0
-2,-2,1
0,-6,1
-1,0,0
-1,0,3
0,2,1
-4,1,0
-2,-1,1
0,1,0
1,1,-1
2,4,0
4,2,2
5,3,2
7,2,6
10,1,3
12,5,5
13,0,4
13,3,3
13,2,5
12,0,8
9,0,2
6,1,2
5,2,0
3,5,0
3,8,2
3,5,0
1,6,0
2,7,1
1,10,0
1,10,0
5,3,0
4,3,1
5,2,1
8,0,0
11,-1,-2
10,-5,0
8,-4,-1
11,-1,0
7,1,-1
8,-1,0
8,0,0
7,-2,-2
7,-2,0
5,-2,-2
4,-1,-1
1,-5,-1
-2,-8,-1
-5,-11,2
-9,-15,1
-11,-24,0
-12,-30,0
-17,-29,0
-19,-33,-1
-19,-31,-2
-21,-30,-1
-16,-27,-5
-13,-19,-4
-13,-15,-4
-12,-9,-3
-7,-1,-3
-4,2,-1
-1,6,0
1,9,-1
0,13,1
4,12,4
6,17,3
5,13,6
8,13,6
5,10,5
8,9,4
8,10,4
6,5,3
7,3,0
7,0,1
6,2,0
8,-1,0
7,3,-1
4,2,1
8,3,3
4,6,-2
4,5,-3
4,6,-1
5,8,0
3,5,3
3,6,4
3,3,1
2,4,0
0,2,2
2,4,-1
0,0,1
0,-1,-2
-2,-4,0
-1,-1,0
0,-2,-1
-3,-1,0
-6,-1,-4
-4,0,-2
-1,0,-4
-3,0,-3
-4,1,-1
-4,-3,1
-1,0,1
2,1,3
1,-2,1
3,-5,2
3,-3,1
5,-4,3
5,-5,3
6,-5,0
4,-1,1
7,-3,4
8,-2,4
6,-2,3
8,-5,5
5,-4,1
8,-4,4
6,-5,3
2,0,4
4,-1,3
4,1,4
2,2,1
-1,5,2
-3,8,5
-5,10,1
-6,11,3
-7,12,3
-10,12,6
-11,12,7
-8,12,7
-7,13,7
3,11,10
9,12,6
17,12,7
26,14,7
38,11,6
42,7,1
44,6,6
43,2,5
42,1,8
38,-2,8
30,-3,7
24,-6,7
18,-4,4
11,-4,4
2,-1,3
-2,0,3
-4,4,4
-6,8,1
-7,7,-1
-9,9,-1
-9,8,-1
-9,7,-1
-9,11,-3
-6,8,-3
-6,5,-3
-6,3,-4
-4,1,-2
-7,-1,-3
-3,-3,1
-5,-6,-2
-4,-6,-4
0,-6,-1
2,-8,-3
3,-5,-2
2,-4,0
3,-6,-1
4,-3,0
3,-3,0
0,-5,2
4,-5,1
3,-2,1
2,-2,3
4,0,3
3,2,1
1,5,2
3,2,4
2,6,5
2,5,4
2,4,6
0,3,7
2,4,8
0,6,6
3,3,3
8,3,8
6,7,6
13,6,5
12,5,6
15,6,9
13,5,5
12,2,8
11,3,9
7,5,8
2,7,13
-3,11,14
-4,19,16
-6,22,12
-4,28,14
-8,37,12
-2,40,14
0,43,13
0,43,13
0,41,13
5,36,14
3,31,11
9,26,14
8,21,12
10,13,9
11,7,9
12,-1,9
11,-8,5
10,-9,4
11,-12,4
8,-13,3
7,-14,0
8,-13,0
4,-10,-4
6,-13,-3
6,-8,-7
6,-3,-7
3,-2,-5
6,0,-4
5,0,-4
4,3,-3
0,4,-2
2,3,0
1,2,-2
0,0,-1
-2,0,-1
-3,-2,1
-4,-4,2
-4,-3,0
-4,-3,2
-3,-5,0
-2,-6,3
-2,-9,2
0,-6,2
0,-6,1
0,-6,2
1,-6,4
3,-7,2
4,-5,4
5,-7,7
6,-4,4
7,0,5
5,-2,7
7,-2,7
7,0,5
9,-3,6
9,-3,7
11,-5,6
13,-5,2
10,-2,3
11,-4,6
9,-1,7
12,1,3
11,0,3
12,1,4
13,0,1
14,5,2
16,3,2
14,3,2
15,2,3
14,2,2
14,2,3
15,0,6
11,-1,3
6,-3,2
7,-2,2
4,-2,0
3,-3,4
2,-1,7
1,0,1
2,5,0
2,4,1
2,10,2
2,13,2
3,16,-1
4,17,-2
5,16,0
5,14,0
4,17,0
4,15,4
3,17,5
0,18,10
-4,16,8
-9,17,12
-10,17,14
-11,17,12
-5,17,13
-1,19,13
6,18,11
17,23,11
27,24,8
32,23,9
36,20,10
39,17,10
37,11,13
33,5,12
27,5,12
19,0,11
11,0,10
5,-4,10
-1,-2,6
-6,-4,6
-8,-5,6
-8,-2,1
-9,0,1
-10,2,1
-5,4,-1
-1,0,-1
2,1,-1
1,2,0
3,-1,3
3,0,0
5,-2,2
4,-3,2
4,-8,0
4,-9,1
5,-9,3
1,-10,-1
0,-10,-1
0,-10,-2
1,-9,-2
-1,-6,-4
-2,-7,-2
-4,-4,0
-7,-3,-4
-6,-4,-2
-8,-3,-3
-5,-3,-2
-8,-3,-2
-13,-4,0
-9,-1,0
-10,-1,-1
-12,0,0
-11,0,2
-10,1,0
-9,3,-2
-4,5,-4
0,6,-1
6,7,-2
8,8,0
8,9,-2
11,11,0
12,7,3
12,10,0
13,8,2
10,7,3
5,8,2
5,8,5
6,7,8
3,6,8
5,7,7
5,9,4
6,7,6
9,7,5
11,8,5
15,2,6
16,1,6
18,3,5
19,0,1
19,1,0
17,0,1
15,0,0
15,0,-1
12,-1,0
10,-1,0
8,-2,0
6,-2,0
7,-4,0
6,-3,-1
4,-1,0
2,-1,-3
2,0,0
3,1,-2
3,3,0
2,2,-3
1,4,-2
0,7,-3
-2,3,-4
-4,0,-2
-6,0,-3
-7,0,-2
-6,0,0
-7,-2,0
-7,-2,0
-7,1,0
-8,-5,1
-6,0,2
-5,-2,3
-2,-2,5
-3,-1,3
-1,-1,2
0,1,3
1,1,4
0,3,5
3,3,7
6,3,6
6,3,6
7,-1,7
9,-2,8
5,-1,7
6,-8,5
9,-6,5
7,-7,2
7,-5,5
5,-3,6
6,-3,5
9,-6,4
11,-4,3
9,-6,6
12,-4,7
10,-3,4
10,0,5
9,4,3
12,3,1
9,5,0
12,5,-1
11,8,-6
8,5,-4
9,5,-5
7,6,-5
-2,6,-3
-6,4,-2
-10,2,-3
-19,3,1
-22,0,2
-27,-3,4
-22,-1,6
-18,-3,0
-13,-3,0
-3,-1,-4
6,0,-3
16,3,-3
21,3,1
25,8,-1
26,4,1
26,3,4
18,3,5
12,1,4
10,3,5
5,2,5
0,2,3
-4,2,1
-6,3,2
-3,2,3
-3,5,2
-3,8,3
-2,8,4
-1,7,2
0,7,2
5,4,1
2,2,0
4,2,0
5,3,3
6,0,0
5,-1,2
6,-3,1
10,-4,3
10,-4,1
12,-6,-1
10,-6,0
12,-6,0
8,-6,-1
7,-4,-6
7,-4,-3
8,-3,-3
6,-2,-3
10,0,-3
8,0,-2
12,2,0
11,4,2
9,2,1
4,0,2
0,2,4
-2,-2,6
-7,-1,7
-9,-3,9
-9,-3,8
-7,-3,11
-6,-2,6
-4,0,3
2,1,3
3,3,0
3,1,2
5,0,0
5,0,2
7,-1,1
3,0,2
4,-3,3
2,-2,2
3,-1,3
4,1,1
3,4,0
4,1,0
8,3,0
7,6,-5
12,9,-2
13,4,0
15,6,1
13,5,1
14,6,0
13,2,1
12,1,0
12,2,-5
9,0,-2
6,-3,-5
6,-2,-3
4,-4,-3
4,-5,-2
4,-3,-2
3,-4,-3
4,-6,0
4,-5,-3
1,-8,-1
3,-7,-4
0,-9,-1
0,-7,0
-1,-4,-4
-7,-3,-2
-8,-2,-3
-8,1,-3
-9,2,-1
-8,6,-2
-8,6,-1
-7,10,-1
-3,9,-3
-1,9,-2
0,6,-3
0,3,-1
2,4,-3
4,4,-2
5,0,0
6,1,1
5,0,0
6,0,2
5,2,1
5,-1,1
6,-2,5
2,-1,0
1,-1,2
0,0,2
0,2,1
1,0,4
3,2,2
3,2,2
5,1,2
4,3,3
8,3,1
7,8,0
7,7,-3
12,10,0
12,11,-4
12,11,-4
13,11,-7
9,9,-5
4,8,-1
-2,6,-3
-7,8,-3
-11,2,3
-19,4,5
-22,2,5
-20,0,4
-15,1,0
-10,3,-1
0,5,-2
10,4,-3
18,3,-3
21,5,-2
23,2,0
24,2,1
22,-2,3
17,-3,4
11,-4,3
6,-6,6
2,-6,4
0,-6,0
0,-5,3
-2,-2,1
1,-3,-5
8,0,-7
9,-1,-9
14,0,-11
17,1,-14
22,-2,-18
21,0,-15
26,-5,-11
24,-8,-14
23,-8,-14
22,-9,-10
18,-11,-8
18,-12,-9
16,-12,-2
12,-15,-3
9,-16,-1
6,-16,1
3,-17,2
3,-13,3
-1,-14,4
0,-14,2
-3,-8,3
-7,-11,1
-8,-8,1
-8,-6,-1
-8,-3,-1
-7,0,-4
-8,3,-4
-10,1,-3
-7,4,-5
-10,6,-5
-8,5,-3
-8,2,-1
-6,1,-1
-7,1,0
-2,1,0
-2,3,0
1,4,0
4,1,-1
6,5,-1
5,4,1
3,5,0
4,1,-1
-1,2,-1
-4,1,-1
-8,0,2
-11,-1,1
-14,-1,-2
-12,-2,-1
-13,3,-1
-13,1,-1
-11,2,-3
-4,4,0
-2,1,-2
0,1,-1
2,3,0
8,2,0
11,1,0
14,-1,2
20,-4,2
16,0,0
19,-1,2
21,0,-2
22,0,-1
21,-1,-2
16,2,-3
18,3,-4
16,3,-1
18,2,-1
16,1,0
11,2,-6
9,2,-4
8,3,-1
2,3,-5
0,2,-2
0,3,-1
-2,0,-4
-3,0,-4
-4,1,-7
-4,4,-5
-2,2,-6
-3,4,-6
0,4,-5
0,9,-7
7,9,-3
7,8,-3
10,8,-1
14,12,-2
16,11,-2
20,13,-2
22,13,-1
25,14,-3
27,15,-4
29,15,-4
31,14,-4
31,12,-3
31,16,-9
31,16,-6
31,13,-6
28,16,-5
28,14,-7
24,17,-6
21,13,-8
18,10,-5
14,10,-5
11,7,-4
10,4,-7
5,4,-6
6,1,-3
7,0,-2
4,0,-1
1,2,-2
8,-4,0
10,-2,3
10,-2,0
13,0,3
11,1,0
13,4,-1
14,4,-2
18,5,-7
16,8,-10
14,8,-8
12,8,-8
7,10,-8
3,11,-6
1,7,-6
-6,8,0
-7,5,2
-8,5,5
-9,7,5
-2,8,7
6,10,7
11,10,4
24,12,7
34,11,7
43,12,8
46,9,9
49,6,10
52,4,9
49,0,7
49,0,7
43,-1,8
39,-3,8
34,-1,1
30,-2,7
23,-1,6
20,1,6
15,1,7
11,3,6
11,0,8
4,4,6
3,5,5
3,4,9
2,6,6
3,7,0
4,7,4
6,3,5
7,2,6
9,1,3
10,0,2
9,-1,2
13,-5,3
12,-7,5
12,-3,3
9,-6,1
7,-7,-2
7,-6,2
4,-7,-1
0,-3,-5
2,0,-5
0,-3,-1
2,-1,0
0,0,-3
-2,-1,-1
1,2,0
1,3,0
0,5,3
-2,3,1
-3,1,5
-3,0,4
-3,3,0
-5,3,5
-7,5,2
-2,7,1
1,6,1
6,6,1
10,6,1
14,9,1
15,10,2
18,7,3
17,5,1
18,4,2
18,5,1
17,0,4
11,2,4
13,0,5
10,-1,2
9,-1,3
9,1,3
9,2,1
8,3,3
9,6,-2
11,4,0
12,5,0
13,6,1
13,5,0
10,4,-1
13,0,1
14,-2,1
14,0,1
11,-1,0
9,-1,-2
8,0,0
7,-2,-2
4,-2,2
7,-1,-2
3,0,-2
5,-1,0
5,-3,0
1,0,0
1,5,0
-1,3,0
0,3,1
-1,6,-1
-2,9,0
-2,6,-1
-3,8,0
0,7,2
2,6,1
1,4,0
6,3,4
4,3,2
7,2,-1
7,0,-1
8,0,2
10,-1,0
8,-2,1
9,0,3
11,0,1
9,0,-1
11,0,4
8,2,2
10,3,2
9,3,6
6,5,0
10,5,3
8,8,3
5,7,0
8,10,3
8,7,0
6,8,0
5,5,1
7,4,1
6,4,1
4,1,2
1,2,2
4,1,2
5,4,0
4,0,0
6,0,1
2,1,0
4,5,0
7,5,0
6,5,2
6,3,0
6,6,1
6,6,1
4,4,1
7,3,3
8,3,3
6,1,1
6,3,2
6,2,-1
7,0,2
6,0,0
3,3,0
4,5,3
5,8,3
7,7,2
6,9,0
7,8,4
7,8,3
6,10,5
7,9,2
11,6,3
9,5,3
9,7,3
11,6,3
12,3,3
8,3,3
9,4,2
8,1,2
6,3,3
7,2,4
5,2,4
2,4,3
4,3,2
3,3,1
2,2,0
4,2,3
6,1,1
3,2,0
4,4,1
4,2,0
4,5,-1
8,4,0
7,6,0
5,3,-1
4,6,2
3,6,0
4,3,-1
0,5,3
2,3,0
1,5,0
3,3,0
0,3,0
-1,5,0
0,3,-1
3,4,0
3,3,0
3,4,0
4,6,0
5,4,0
8,3,-2
7,5,0
7,2,1
9,3,2
7,1,-1
11,1,0
9,-1,2
9,-5,1
9,-4,1
8,-6,1
11,-4,2
11,-5,2
10,-8,0
12,-6,0
10,-2,0
11,-2,1
11,0,0
11,2,1
11,1,0
10,3,0
7,5,0
3,4,-2
1,7,-2
-4,11,0
-5,5,3
-12,8,1
-15,11,7
-17,9,6
-16,15,9
-13,13,8
-7,14,8
3,15,5
9,14,8
18,13,8
25,11,6
31,8,0
33,3,1
33,2,0
34,0,3
32,0,4
25,0,2
19,2,1
18,5,1
9,3,2
7,2,4
3,1,1
3,0,1
0,3,-1
4,0,0
1,0,-1
0,2,2
-2,0,1
0,5,2
0,6,0
2,4,0
3,4,0
4,2,0
1,0,2
7,-4,0
5,-5,0
7,-6,-3
6,-8,-2
6,-8,-1
6,-8,-3
7,-8,0
4,-5,-2
0,-5,-4
0,-1,-3
-1,-3,-2
-4,1,-1
-3,0,0
-4,1,-1
-3,2,0
-4,1,-2
0,1,0
0,2,1
0,1,1
1,1,4
3,0,2
1,0,1
4,1,-1
3,-1,3
7,-1,0
7,-2,1
9,1,2
15,0,0
16,3,0
19,0,1
18,3,4
17,5,0
16,3,1
15,1,4
16,1,5
13,2,2
8,1,3
7,2,2
6,0,1
4,2,2
6,1,2
5,2,3
5,6,0
4,2,1
5,3,-3
6,3,0
7,3,1
9,2,-1
9,0,2
11,-3,3
13,-3,0
13,-2,2
13,-3,0
12,-1,-2
13,-3,0
12,-3,-1
12,-1,0
10,0,0
9,2,0
9,2,-1
5,4,-1
3,0,-3
0,5,-4
0,3,-2
0,3,-3
-1,3,-3
-5,3,-2
-6,4,0
-7,0,-2
-6,-2,-1
-4,-3,-1
-4,-2,0
-6,-2,-5
-5,-4,-4
-5,-4,-1
-4,0,-4
-3,1,-5
-2,2,-2
-5,3,-5
-7,8,-3
-4,9,-3
-2,9,-2
-2,9,1
0,13,0
0,10,2
-1,13,-1
3,11,-2
2,8,0
5,8,1
9,8,-1
7,6,0
11,4,5
10,5,2
14,2,4
17,2,0
14,2,1
14,1,2
15,0,0
13,0,0
13,0,-1
14,-2,3
12,0,0
11,2,0
9,8,1
9,3,0
11,4,0
8,1,2
5,4,2
6,4,0
6,2,3
4,0,0
2,1,2
1,-2,5
2,-3,4
2,3,3
0,0,0
4,2,1
-1,1,2
1,1,5
1,2,4
0,3,3
2,4,5
2,6,2
3,7,3
3,7,0
5,8,1
6,7,2
5,5,3
5,2,5
5,-1,4
8,1,5
9,-3,7
8,-4,8
8,-4,2
7,-4,4
10,-4,6
10,-3,1
7,-1,2
5,0,3
6,3,4
6,2,0
5,2,3
1,4,3
1,5,5
1,5,5
0,7,4
0,4,6
4,4,4
5,5,4
5,2,6
5,0,5
6,-1,4
6,-5,0
3,-4,0
3,-6,1
4,-5,0
4,-6,0
2,-2,0
1,0,0
2,0,-1
2,4,-1
1,3,0
1,3,0
0,3,0
2,4,2
1,3,2
4,4,0
4,5,0
1,6,1
0,3,1
-3,2,2
-5,3,0
-7,2,2
-9,-1,4
-12,0,3
-11,1,10
-12,1,7
-10,6,8
-8,12,8
1,9,9
10,11,5
17,11,6
24,11,4
32,7,3
35,6,6
34,2,6
33,-4,4
32,-6,3
24,-9,3
21,-9,3
14,-7,7
9,-8,6
2,-5,5
0,-2,3
0,0,8
-4,-1,7
-7,1,5
-6,-1,0
-7,0,2
-5,-1,4
-5,-2,0
-8,0,0
-7,-3,0
-5,-3,0
-3,-4,0
-3,-4,-3
0,-7,-2
0,-5,0
3,-10,-3
4,-11,-1
4,-12,-2
2,-10,-2
1,-9,-2
0,-7,2
0,-8,2
-1,-3,0
-2,-3,2
-2,-1,1
-3,-3,4
-2,-1,2
-1,-2,3
-1,-2,0
3,-5,2
2,-3,0
5,-5,1
3,-5,4
2,-5,4
0,-5,3
0,-6,3
-1,-3,6
-3,-4,6
0,0,4
0,-2,4
2,-3,2
4,-4,3
6,1,3
8,0,2
8,3,2
9,6,7
5,5,7
5,7,7
0,4,4
1,3,5
0,1,2
-2,0,3
-2,2,2
-1,0,0
-2,0,3
-3,2,4
0,2,0
1,0,2
3,2,0
6,-2,2
7,0,1
9,-1,1
10,-1,5
10,-4,2
11,-6,2
11,-5,2
10,-8,5
9,-8,5
6,-5,3
4,-5,0
7,-5,3
7,-4,2
7,-2,2
8,-4,0
9,-3,2
8,0,-3
9,1,-2
7,1,-4
3,0,-4
2,3,0
3,4,-5
0,3,-1
1,3,-3
-2,2,0
-6,4,0
-8,1,2
-7,4,0
-10,0,0
-5,1,4
-9,0,2
-5,-3,2
-8,0,4
-4,0,4
-5,0,4
-4,1,5
-2,5,3
0,3,2
1,4,5
2,4,5
4,5,4
7,2,6
5,3,5
8,0,6
8,1,4
9,2,2
13,3,2
14,5,2
13,6,0
14,6,0
13,3,0
15,5,1
15,6,4
14,2,2
13,2,3
13,1,4
11,-1,7
11,2,3
9,-1,3
9,-1,4
8,1,2
6,0,1
3,3,0
0,1,1
2,3,0
5,3,1
1,6,0
0,3,-2
1,7,0
0,7,0
3,5,1
0,6,0
0,3,2
2,3,3
0,3,4
3,0,4
3,1,4
3,0,6
1,2,5
3,4,4
5,2,3
3,5,3
2,7,2
6,11,4
5,9,4
7,9,2
9,11,2
8,9,2
11,8,7
12,8,5
10,5,6
10,4,6
11,4,9
7,3,5
9,1,5
9,-1,7
9,2,4
13,1,6
12,2,3
14,3,5
14,4,5
15,4,9
13,9,3
15,12,1
14,7,0
15,10,2
11,10,-4
11,12,-1
9,11,-1
5,8,3
-2,11,1
-7,13,3
-11,9,8
-16,9,9
-16,5,7
-14,7,8
-10,4,8
-8,6,8
2,2,6
15,2,4
23,4,3
29,0,2
34,4,1
31,4,0
29,3,5
22,3,5
18,2,5
14,2,7
3,1,2
-1,2,4
-6,1,3
-11,3,3
-12,3,3
-10,6,2
-10,7,0
-10,8,2
-6,7,0
-3,7,0
0,7,-1
3,5,0
5,2,2
9,1,2
9,1,1
9,0,1
8,0,0
8,-2,-1
9,-5,-1
9,-6,-1
7,-9,1
5,-7,-1
6,-6,0
6,-6,-1
0,0,-1
2,-2,3
3,5,-1
3,9,-2
2,9,-1
4,12,1
4,13,1
2,13,0
4,13,2
0,14,5
2,13,7
-2,13,6
-2,11,6
-3,10,6
-2,10,7
-2,9,8
-1,10,7
3,9,3
8,10,2
11,10,0
16,9,0
17,12,0
19,12,-1
19,11,0
18,11,0
19,7,-3
16,7,0
11,6,-1
10,6,-2
10,2,3
8,0,1
6,0,3
5,4,0
7,1,3
8,3,0
9,2,2
6,1,3
10,1,2
12,0,2
10,-2,2
11,-1,1
12,0,0
11,-2,0
9,1,1
9,0,0
8,-3,1
6,-4,0
10,-4,1
9,-7,0
10,-5,1
10,-2,3
7,-1,1
8,0,0
6,2,0
7,2,2
7,3,1
5,5,-1
-1,5,1
2,2,2
0,5,0
-4,3,0
-4,6,0
-7,9,0
-6,5,2
-3,4,1
-4,5,3
-3,7,5
-2,5,3
-3,3,7
-3,0,6
-2,3,6
-2,1,7
0,0,8
-1,2,5
-3,7,9
0,4,8
-2,7,9
-1,4,7
-1,4,6
2,4,5
0,4,9
0,2,4
0,1,3
1,2,2
1,0,4
5,-3,2
3,0,3
1,1,0
2,1,5
3,-1,1
3,1,1
4,0,5
5,0,3
8,0,2
5,3,2
6,4,0
3,2,3
5,1,1
4,0,-1
6,0,-2
4,1,-3
4,1,-2
2,-1,-3
1,0,-4
1,-2,-4
3,-1,-1
1,2,-1
3,0,2
-1,2,-4
-1,1,-1
-1,0,1
-1,0,0
-5,1,0
-5,1,-1
-6,0,2
-6,-1,1
-4,-3,3
-3,-2,0
-4,-2,1
1,-1,3
1,-1,2
1,-1,2
2,0,1
3,0,0
5,3,-2
8,5,1
8,4,-2
9,5,-5
7,5,-2
3,7,-3
1,5,0
-1,7,1
-8,6,3
-11,4,5
-13,4,4
-10,4,8
-8,2,4
0,1,3
11,2,0
17,2,-2
28,-1,-2
31,-1,-4
37,0,-3
37,1,-2
32,0,-1
26,0,1
19,0,0
13,-1,2
4,0,-1
0,-1,-2
-7,2,-2
-7,1,-4
-10,1,-2
-10,4,-2
-8,5,-4
-7,6,-6
-5,6,-5
1,7,-3
4,3,0
5,3,-2
4,4,0
5,0,-2
6,0,0
2,-3,0
4,-5,-2
5,-6,0
3,-11,-1
0,-7,2
0,-8,-1
2,-9,0
-1,-9,1
0,-8,0
0,-8,2
-6,-7,2
-4,-5,1
-5,-4,0
-3,-4,3
-3,-2,1
-2,-2,-1
1,2,-1
4,6,1
5,4,1
4,5,1
0,5,3
0,6,3
1,2,6
2,1,7
1,0,7
0,0,9
3,1,5
6,-1,2
8,3,2
13,0,0
12,1,0
16,3,3
17,2,0
16,4,0
13,4,3
14,4,2
6,4,1
8,4,0
6,2,0
5,3,0
2,-1,0
1,0,0
5,2,-1
3,0,-1
3,0,-1
5,2,-2
5,3,0
3,2,-2
2,2,3
3,2,0
2,0,3
3,2,3
-2,2,0
1,1,1
-1,-1,1
1,-1,2
0,-2,0
-1,-1,2
1,-2,1
0,-1,-1
3,0,-1
4,-1,-1
4,-1,-1
2,0,-4
3,0,2
3,0,-1
2,2,0
2,2,0
-3,5,0
-2,4,0
-6,6,0
-6,5,0
-6,6,0
-6,5,0
-5,4,0
-6,4,0
-5,2,0
-1,3,1
-3,5,-1
-1,3,0
-1,5,3
1,3,0
2,4,0
5,3,0
0,3,-1
1,0,1
3,2,0
1,1,-1
2,0,1
3,-1,0
1,-1,2
0,0,0
-1,4,0
1,3,1
0,2,2
-1,6,-1
1,4,1
0,1,1
1,4,-1
0,4,1
0,2,2
1,0,0
0,2,0
0,0,1
0,1,-1
-1,1,0
2,2,-3
2,1,0
2,1,-1
0,1,-2
3,0,0
2,1,-3
6,0,0
4,4,-1
5,4,0
7,3,-2
6,4,1
4,4,-1
4,1,0
2,1,-3
2,2,-2
1,1,0
-2,1,0
-1,-1,0
-1,0,0
0,-1,0
-1,0,4
-1,3,0
-3,0,1
0,2,2
0,5,0
3,4,0
5,6,1
1,7,0
0,5,-2
-2,6,0
-6,9,1
-7,2,2
-12,6,3
-13,4,9
-11,5,7
-9,3,8
-2,7,6
5,6,8
15,8,3
24,9,4
31,10,1
38,10,2
38,8,1
41,6,4
37,6,3
29,1,5
29,0,5
20,2,0
10,0,1
1,0,0
-5,-1,-3
-6,1,0
-9,0,-1
-14,0,-1
-14,0,-1
-15,0,-2
-13,-1,0
-12,0,-2
-12,-4,0
-9,-1,-2
-7,0,-3
-7,-2,-3
-6,-2,0
-5,-3,-3
-2,-5,-1
-5,-7,-5
0,-6,-1
1,-7,-4
1,-6,-2
2,-6,-2
3,-4,-3
4,-4,-1
4,-1,-3
5,0,-1
3,3,-3
-2,3,-1
0,4,-3
0,1,-3
-1,0,-2
2,0,-2
2,0,0
2,1,1
1,0,3
0,2,3
0,-2,4
-1,0,5
0,1,4
2,0,3
-1,1,3
-1,2,3
0,1,5
3,7,0
6,4,2
10,9,0
15,9,1
13,6,0
15,6,0
17,7,2
15,5,3
15,2,2
12,1,3
9,0,1
9,-5,3
4,-4,0
4,-3,0
2,-5,0
1,0,-1
2,0,1
2,0,0
3,4,0
4,1,0
5,2,0
5,2,0
4,1,-2
7,3,-2
5,0,2
8,-1,1
5,1,0
7,0,-1
8,-1,1
7,0,4
5,-2,0
8,-1,0
7,-2,-3
7,1,0
7,-1,4
5,0,-1
6,0,-4
6,0,-2
7,0,-2
2,1,-1
2,0,-1
0,3,-3
0,3,0
0,0,-1
0,1,-1
1,2,1
0,2,0
-1,2,0
-2,1,0
-2,0,2
-1,4,1
-2,2,0
-2,-1,1
-3,3,-2
-3,2,1
0,1,0
-1,2,3
2,1,2
3,2,3
4,3,1
4,2,1
6,1,-1
6,4,-1
7,0,1
7,2,0
7,4,1
9,1,2
8,0,3
8,0,3
5,0,3
5,-1,3
4,1,2
2,2,0
2,1,0
0,0,0
2,0,-1
1,0,2
0,0,1
1,2,-3
0,3,0
-3,1,-3
0,1,0
-1,3,-3
-2,2,1
-1,1,0
0,0,0
0,0,-1
0,0,-1
-1,0,0
3,-3,0
4,-1,-3
3,0,-1
4,0,0
3,-2,2
2,-3,0
3,0,0
2,-2,2
1,0,0
1,1,0
2,1,1
0,4,1
0,4,-2
0,4,0
1,4,1
-1,3,4
0,1,2
2,1,1
-1,-1,0
0,1,2
-1,2,2
0,4,1
0,4,3
2,1,4
2,2,0
0,2,2
4,3,4
7,1,2
5,0,3
9,0,4
6,0,3
8,0,6
7,-2,6
9,-5,4
7,-2,4
7,0,5
8,-1,3
9,-1,3
9,0,2
10,0,4
11,2,3
11,2,0
12,1,5
11,3,2
12,1,3
12,2,4
12,5,0
9,2,0
9,5,2
3,3,0
2,4,0
-3,4,-3
-10,4,0
-8,3,2
-10,1,5
-15,6,6
-12,6,10
-9,8,12
-5,11,9
-1,10,10
8,10,5
15,11,4
21,10,5
28,10,2
30,6,5
35,3,4
30,0,1
29,-1,4
27,-2,2
19,-1,2
14,-1,3
12,-1,5
5,-2,3
6,0,6
0,0,4
0,0,3
0,0,6
2,2,6
3,4,4
3,2,1
4,1,3
6,-1,4
5,1,0
5,-1,2
4,0,-1
4,-1,0
5,0,1
5,-3,2
6,-3,0
5,0,0
4,-5,4
6,-3,0
4,-6,1
2,-2,0
1,-3,1
2,-3,0
4,0,-1
0,0,0
0,0,1
0,1,1
0,1,0
3,0,0
1,-1,0
2,0,0
3,0,3
2,1,1
0,0,1
-2,3,2
-1,3,2
0,2,3
0,0,2
1,0,3
2,2,3
4,3,2
6,6,4
10,8,2
12,6,1
17,8,0
15,7,0
13,7,2
13,8,0
12,3,2
10,1,-2
7,0,-1
2,-1,0
2,-1,-3
2,0,-4
0,3,-4
-2,4,-7
-5,7,-8
-8,9,-12
-9,9,-8
-13,14,-8
-17,12,-13
-20,10,-16
-24,14,-15
-28,9,-19
-28,7,-17
-30,6,-20
-30,2,-17
-35,0,-20
-33,0,-19
-37,1,-16
-33,-2,-16
-35,-1,-18
-35,-1,-17
-35,0,-16
-33,0,-16
-36,-1,-16
-36,-1,-17
-37,0,-13
-35,-1,-12
-38,0,-13
-35,1,-12
-35,0,-10
-34,0,-9
-32,1,-11
-33,0,-11
-31,0,-8
-27,0,-6
-24,0,-5
-21,-1,-7
-17,0,-4
-12,0,-2
-7,0,-1
-4,0,-1
2,3,0
4,3,-1
5,1,1
10,1,2
13,-2,3
16,-2,6
16,2,6
16,-4,6
18,2,7
22,0,9
18,0,6
23,0,8
20,0,8
18,2,7
21,0,10
21,1,9
22,2,8
20,2,8
21,0,8
21,2,5
19,0,9
23,0,8
20,0,10
20,1,8
19,1,9
18,0,10
19,1,9
19,0,9
12,3,4
12,2,5
13,0,4
12,-2,7
16,0,6
9,-1,6
11,0,5
10,0,4
12,2,4
10,4,4
10,4,4
10,2,6
8,4,3
8,1,6
11,1,2
9,1,3
9,0,6
11,-1,4
8,-2,4
7,-1,6
8,1,4
4,2,3
8,4,3
6,0,0
8,1,3
6,2,2
5,0,1
8,0,1
6,2,4
5,2,6
5,5,5
5,5,4
8,2,4
5,6,2
6,2,0
10,1,1
8,-1,0
10,0,-1
8,-2,0
9,-3,2
9,-4,4
4,0,0
4,-1,1
6,-3,5
5,-3,0
4,-3,2
3,-3,2
2,0,-1
1,0,5
3,0,4
0,0,6
1,1,3
6,2,2
6,3,2
7,2,0
3,3,0
5,4,0
0,2,-2
0,2,-4
0,3,0
-3,3,0
-8,5,2
-8,6,4
-10,3,10
-7,3,10
-1,3,11
2,4,8
12,2,7
19,6,8
25,7,2
34,7,3
36,6,3
37,4,4
36,1,4
32,1,5
26,0,5
21,-2,6
15,-3,8
7,-4,5
3,-3,5
0,-3,4
-3,-3,4
-6,-4,3
-5,-1,2
-2,-4,1
-3,-1,1
-4,-3,0
-1,-2,0
0,-3,3
0,-1,0
1,1,1
2,5,-1
4,0,-2
4,2,-1
6,0,1
5,-2,1
6,0,3
2,-5,0
7,-5,2
5,-3,1
5,-7,3
4,-5,1
5,-5,5
2,-5,0
1,-5,0
1,-5,2
0,0,1
2,-2,2
-1,0,2
3,0,0
2,0,0
4,-2,-2
7,0,2
2,2,1
3,1,3
1,2,2
2,3,5
2,0,8
2,0,5
2,2,7
3,3,5
4,7,5
6,6,6
8,8,4
12,8,2
13,6,3
13,6,2
13,5,3
13,1,3
9,2,7
9,1,8
5,2,7
3,3,8
0,3,4
1,1,5
1,0,6
2,2,5
2,1,6
2,3,2
4,2,4
7,2,4
7,1,3
11,2,2
13,0,2
14,0,2
14,-1,4
12,0,5
16,-2,5
15,-4,7
11,0,7
11,-1,6
11,-2,6
6,-4,3
8,-2,6
6,-2,5
6,-2,4
6,0,1
4,3,-1
5,2,3
4,4,0
2,7,-3
0,6,-3
0,3,0
-3,1,-2
-1,2,0
-3,3,-1
-4,1,3
-5,2,0
-4,1,3
-5,4,1
-5,5,2
-4,0,3
-1,-3,2
-2,-2,2
-3,-2,3
-2,-2,2
-1,1,4
-3,-2,4
-2,2,4
0,3,1
-3,6,3
-1,4,4
1,6,5
-1,7,5
1,6,6
4,6,8
5,4,7
5,5,5
7,5,4
6,5,4
8,4,5
10,3,4
11,4,4
10,2,4
11,1,5
14,0,3
14,1,5
13,2,4
13,0,3
12,2,6
9,3,4
9,5,4
12,4,2
6,4,2
5,5,3
5,7,2
5,3,2
4,4,4
7,3,3
2,5,2
0,6,0
2,4,1
1,4,0
3,1,1
0,5,0
3,3,2
1,1,3
1,1,2
0,2,7
0,-1,3
0,-2,3
-2,-4,3
3,-3,3
2,-1,4
2,0,4
3,0,3
5,2,4
5,5,4
7,4,2
9,8,0
10,7,0
11,6,0
11,8,0
8,8,0
8,6,0
4,10,-1
-1,7,0
-4,6,5
-8,6,2
-12,4,10
-10,2,12
-9,2,11
-6,2,9
3,1,9
12,3,2
20,5,2
30,4,3
35,1,3
37,0,3
37,-1,4
31,-4,3
27,-6,5
22,-8,4
12,-8,8
5,-3,6
0,-5,6
-5,2,10
-9,3,6
-9,8,9
-9,12,8
-5,10,8
-2,8,7
0,6,5
3,6,5
3,5,0
9,7,1
7,1,2
9,-1,1
9,-1,2
11,-4,1
8,-7,1
8,-7,1
5,-7,1
7,-6,2
4,-2,1
4,-1,-1
0,-2,-1
2,0,1
1,0,1
-1,-2,2
-3,4,2
-3,2,3
-3,1,1
-3,5,4
-4,5,3
-4,3,2
-4,3,2
-4,4,0
-5,6,2
-8,4,2
-5,0,0
-5,2,4
-5,0,4
-4,2,5
-2,7,7
2,6,3
6,8,3
13,9,3
15,6,2
17,8,2
18,5,5
18,1,3
17,1,6
12,4,5
14,1,7
8,0,9
5,1,10
3,1,7
0,1,8
1,2,7
2,5,4
3,6,6
5,3,4
5,6,4
9,3,4
10,2,3
12,2,0
18,1,1
15,0,2
14,-4,4
15,-3,1
14,-6,3
13,-9,2
12,-5,4
8,-3,1
12,-2,3
8,0,-1
11,0,0
9,2,-1
9,-3,-1
8,1,0
6,-2,-1
9,0,-1
7,1,-2
4,2,-2
4,7,-1
0,5,0
-1,9,-2
-1,8,-5
-4,10,-1
-3,8,-3
-2,4,-2
-3,1,-1
-3,0,-3
-1,0,-2
-1,2,-1
0,2,1
0,3,-1
-1,2,1
0,3,0
4,1,0
2,1,4
3,-5,2
2,-3,8
7,0,5
4,0,6
7,1,7
4,2,8
4,4,5
5,3,7
7,1,6
7,0,3
7,1,5
7,3,2
8,2,6
8,4,1
10,3,6
10,2,2
9,4,3
11,4,4
14,2,3
11,6,0
10,5,1
11,3,2
6,7,0
7,6,0
8,1,0
4,5,1
2,0,0
3,-2,2
0,-3,0
0,-4,1
-1,-1,2
-1,0,0
-2,0,0
-4,0,0
0,3,2
-4,4,2
-1,5,0
0,8,-4
0,7,-5
5,8,-3
1,9,-5
0,8,0
-2,10,0
-6,7,-3
-10,7,2
-14,9,5
-14,3,8
-14,0,10
-9,1,10
-2,1,10
6,2,7
16,0,6
26,3,2
35,5,2
40,4,0
43,3,1
44,4,6
38,1,4
30,2,6
23,0,6
14,1,5
4,0,5
0,-2,3
-5,2,3
-7,4,3
-8,4,2
-8,7,0
-4,5,0
-1,7,0
0,5,2
2,4,-1
5,4,0
4,3,1
5,0,0
7,-2,0
4,-2,1
5,-5,0
2,-5,-1
2,-6,-2
0,-5,-4
0,-6,-3
3,-5,0
-1,-5,-5
0,-7,0
3,-6,0
0,-4,-2
0,-1,2
0,1,-3
1,0,-2
0,0,0
0,1,1
4,1,2
2,3,0
4,3,3
4,2,4
3,2,4
1,0,4
0,1,6
0,0,6
2,-6,7
1,-3,8
4,-4,4
6,-5,6
6,-1,4
14,-3,4
16,-1,2
19,0,4
19,0,3
19,2,6
18,2,5
16,1,5
15,1,4
11,0,3
7,0,4
0,1,6
3,0,6
1,2,4
-1,0,5
3,3,4
8,0,4
9,1,3
10,-1,-1
11,1,2
11,0,2
16,-1,2
14,0,0
11,0,0
13,-3,-2
9,-5,-2
7,-5,0
8,-3,0
6,-2,0
6,-1,0
5,2,-2
5,-1,0
3,1,-2
7,0,0
8,1,-4
5,3,-2
3,1,-2
4,2,-4
0,5,0
0,7,-2
0,6,0
-1,3,0
-5,5,1
-4,3,1
-3,1,2
-3,1,3
-2,2,3
0,0,1
-1,1,2
0,0,1
2,4,1
3,3,3
2,1,1
5,1,4
4,1,3
6,3,3
5,2,6
3,4,5
5,8,0
3,7,1
5,7,1
4,6,1
5,3,1
3,4,2
6,5,0
4,4,-1
7,3,0
7,0,0
8,1,1
9,0,4
11,0,0
5,0,0
7,0,0
8,-4,1
8,-1,-2
5,-1,0
3,-1,-4
4,-1,-3
4,0,-1
2,-1,-2
0,0,-5
0,-2,-3
0,-1,0
0,0,1
0,-1,-1
1,0,-1
0,3,-2
2,2,-4
3,2,-4
3,6,-4
1,10,-7
1,5,-2
-4,10,-1
-9,9,4
-16,4,3
-20,3,7
-24,2,9
-20,0,13
-19,-3,9
-12,-2,10
0,1,4
11,4,7
19,3,1
27,6,5
33,3,1
36,2,4
37,2,3
35,1,4
27,-4,7
18,-2,9
12,-3,7
3,-1,8
-2,-1,5
-4,-2,4
-11,0,2
-13,-1,0
-11,2,1
-10,4,-1
-10,5,0
-9,2,-2
-4,0,1
-5,0,0
-1,-1,-1
-1,-1,-1
-4,-2,0
-1,-5,-2
-2,-6,-3
0,-7,0
-1,-10,-3
1,-12,-3
1,-11,1
2,-10,0
2,-10,-3
2,-7,-2
1,-5,-2
-1,-3,-4
-3,-2,-2
-4,1,-3
-5,1,-4
-5,2,-3
-4,2,-3
-4,4,-5
-4,3,-1
0,0,0
0,-2,-2
-1,-3,-1
-2,-5,1
-3,-6,0
-5,-6,0
-7,-5,-1
-8,-5,1
-7,-4,2
-6,0,-1
-3,1,-1
2,2,0
7,5,0
10,6,-4
11,9,-2
10,9,-4
12,8,0
9,12,-3
6,8,-2
2,10,-5
1,7,-1
-3,3,-2
-5,-2,-2
-7,-4,-4
-8,-7,-7
-4,-9,-5
-8,-4,-6
-6,-1,-9
-5,-1,-11
-5,2,-7
-5,4,-6
-3,6,-8
-4,4,-8
-2,3,-6
-1,3,-4
0,1,-4
-1,2,-4
1,-1,-2
2,-2,-2
4,-1,-4
5,-3,-2
3,-3,-3
5,-4,-3
7,-6,-5
4,-5,-2
5,-3,-3
5,-2,-4
2,-1,-5
4,1,-1
1,1,0
0,4,0
2,8,-1
-1,9,-2
-1,9,-2
-1,10,-2
-4,8,0
-2,5,-1
-2,4,0
-2,3,1
-2,2,0
-1,-3,0
1,-5,0
2,-4,1
2,-4,2
3,-2,1
5,-4,3
5,1,3
5,1,4
9,4,4
7,2,1
7,0,3
6,1,2
3,3,0
7,3,1
4,4,0
5,4,0
6,6,-2
5,8,0
6,6,-1
4,5,-2
4,7,-1
5,3,-3
4,4,-2
5,2,-1
7,4,0
5,4,-3
4,1,-3
3,3,-5
1,5,-4
2,1,-2
2,1,0
0,2,0
0,1,-2
0,4,-3
1,0,-4
3,2,-4
0,2,-4
0,2,-1
0,4,-2
0,3,0
0,3,-1
-1,2,0
-1,1,0
-1,2,0
0,2,-1
-1,5,-3
1,5,0
1,7,-5
4,9,-5
3,4,-1
3,5,0
6,2,1
10,3,3
7,1,2
8,1,2
9,-4,3
9,-2,2
8,-3,0
5,-5,1
7,-4,0
3,-5,-1
4,0,1
3,1,-2
3,3,-2
5,4,-2
3,3,0
4,5,-2
4,8,-1
4,5,-1
4,8,-5
4,7,-3
1,11,-5
0,12,-7
-5,10,-5
-7,8,-6
-13,3,-4
-17,3,0
-20,5,4
-20,2,4
-21,3,8
-19,5,8
-14,6,3
-7,8,2
-2,8,0
5,7,-1
14,5,0
21,4,0
24,5,-1
24,2,0
21,2,0
18,2,-4
11,4,-3
8,3,-1
1,3,-5
-2,5,-5
-9,2,-4
-13,4,-3
-12,4,-3
-14,2,-1
-12,0,-2
-15,-1,-2
-13,-1,0
-12,0,-1
-10,1,0
-11,-5,-2
-11,-5,-2
-7,-4,-3
-7,-2,0
-9,-2,-5
-4,-4,-3
-4,-6,-4
-1,-1,-3
1,-2,-4
0,1,-7
1,0,-4
-1,0,-1
1,1,-1
0,2,0
2,1,0
-1,3,2
2,2,2
2,3,4
4,2,3
4,1,1
10,0,3
6,0,2
10,1,2
14,2,1
14,-1,3
15,1,3
12,2,6
14,1,7
11,2,7
13,0,8
11,1,9
13,5,7
14,8,8
13,9,7
20,9,4
21,9,8
26,10,6
28,11,6
27,12,6
29,7,4
27,6,5
27,5,8
26,4,6
23,3,3
20,1,2
22,2,6
21,1,7
21,1,4
21,3,8
18,7,7
20,6,6
23,5,7
25,6,9
25,7,12
27,5,10
32,8,16
32,6,14
40,5,14
41,3,16
42,1,17
47,-1,17
49,0,19
51,0,23
53,2,21
55,-1,22
58,2,23
61,0,21
63,0,23
66,1,19
64,0,16
66,-3,20
64,-4,20
64,1,21
65,1,21
62,2,21
62,0,24
65,0,25
61,-3,27
65,-6,28
62,-6,28
65,-4,28
62,-2,25
63,2,25
63,3,24
62,1,25
61,-3,24
57,-3,23
56,-8,20
55,-11,22
54,-16,22
51,-17,18
50,-16,16
47,-10,15
43,-6,11
36,-5,6
33,1,9
27,0,9
24,-6,9
20,-4,7
16,-10,1
16,-14,0
15,-15,-1
14,-17,0
10,-22,0
4,-20,1
0,-23,-1
0,-20,-1
-1,-16,0
-5,-16,-3
-7,-13,2
-8,-13,0
-6,-10,2
-7,-7,1
-4,-11,4
-6,-16,4
0,-15,5
3,-16,3
3,-20,1
4,-28,-3
2,-41,-3
3,-51,-1
3,-63,3
3,-74,2
2,-81,4
6,-90,6
6,-106,0
12,-108,0
14,-106,1
12,-81,2
19,-66,5
16,-46,3
20,-30,6
19,-11,10
15,2,9
16,27,13
13,49,18
15,54,14
14,55,8
16,56,11
18,57,15
16,88,13
17,105,15
16,94,17
19,94,18
13,102,14
15,103,17
14,104,16
15,104,20
15,105,18
17,108,20
16,111,19
16,111,15
18,117,12
20,119,8
18,119,1
17,118,-1
15,117,0
13,112,-1
10,116,0
10,114,2
5,120,2
2,112,6
2,108,8
0,100,7
-1,98,10
-2,95,10
0,86,8
0,80,8
3,79,10
6,79,4
3,80,-1
4,79,3
6,83,-1
4,84,-3
1,90,-1
0,92,-2
-5,96,-4
-7,99,0
-6,100,3
-11,108,3
-15,111,5
-20,115,5
-23,120,9
-26,126,9
-28,128,10
-30,130,6
-26,126,8
-22,125,7
-17,123,5
-9,120,8
4,124,3
12,122,6
17,127,3
24,134,2
27,138,3
29,142,0
30,146,3
31,144,6
28,136,5
23,130,8
24,123,10
21,110,13
17,98,11
14,91,13
15,90,14
11,96,6
13,99,9
15,110,1
14,119,-5
15,124,-6
18,131,-11
19,136,-13
20,136,-16
24,131,-16
25,127,-15
27,118,-13
31,113,-14
37,112,-9
41,115,-4
44,118,0
46,124,2
52,126,10
54,124,14
56,122,18
54,117,20
51,112,24
49,113,22
50,110,21
50,104,18
51,106,16
49,101,18
55,98,18
57,96,15
59,87,20
60,81,20
60,82,22
62,78,23
66,77,27
66,73,33
68,78,42
72,83,42
76,85,39
77,83,43
81,83,41
83,87,40
87,82,40
90,68,41
94,52,41
98,51,44
99,48,45
103,68,51
106,50,57
105,41,65
109,30,71
109,65,76
115,56,83
116,64,86
115,49,93
116,63,97
117,89,98
118,37,94
123,24,95
125,10,91
126,21,90
131,17,86
133,20,86
137,23,83
141,24,86
142,25,85
142,30,85
142,36,87
139,34,86
137,40,85
137,34,80
135,31,83
133,27,74
128,21,69
125,22,64
125,19,59
119,20,54
119,20,48
115,21,49
115,22,45
113,31,45
106,38,47
103,51,48
99,57,51
93,61,51
88,66,51
84,71,49
79,72,47
71,71,41
65,67,39
57,62,27
52,58,26
46,53,20
44,49,15
41,50,9
40,52,5
41,53,1
43,55,3
39,61,-2
41,63,-3
39,67,-7
38,64,-6
34,63,-3
30,62,-7
24,61,-8
17,63,-11
11,69,-8
8,70,-12
2,68,-17
-7,68,-21
-8,64,-27
-11,65,-32
-16,65,-36
-17,64,-34
-20,63,-35
-18,60,-37
-19,53,-37
-26,47,-36
-27,38,-31
-27,33,-34
-29,28,-32
-32,24,-35
-32,23,-35
-34,24,-38
-37,20,-39
-37,21,-40
-35,19,-43
-40,26,-48
-39,30,-53
-42,33,-53
-40,35,-56
-43,38,-56
-47,37,-58
-46,31,-62
-49,33,-62
-48,32,-62
-48,28,-59
-51,24,-56
-50,22,-52
-52,19,-51
-50,21,-50
-50,22,-50
-54,25,-49
-55,28,-46
-57,30,-48
-58,32,-47
-62,33,-49
-67,31,-49
-71,29,-52
-76,23,-51
-78,21,-55
-82,17,-57
-81,12,-60
-79,7,-62
-74,3,-62
-66,0,-60
-62,4,-57
-51,3,-54
-45,6,-51
-36,5,-47
-29,2,-44
-30,4,-38
-25,2,-36
-23,1,-32
-26,-1,-33
-29,-4,-30
-31,-11,-32
-34,-10,-34
-34,-10,-35
-42,-15,-35
-47,-16,-34
-45,-17,-35
-50,-13,-40
-50,-12,-35
-51,-8,-35
-55,-6,-36
-55,-3,-36
-51,-1,-32
-50,2,-36
-49,1,-36
-49,1,-34
-43,-5,-32
-44,-2,-33
-43,-10,-34
-39,-13,-35
-39,-20,-32
-35,-24,-30
-36,-30,-26
-35,-35,-23
-36,-36,-18
-37,-33,-15
-37,-29,-10
-36,-23,-7
-37,-14,-1
-36,-9,4
-35,-3,6
-34,-3,12
-35,1,18
-33,-1,17
-36,-1,21
-34,-5,24
-35,-9,29
-34,-12,31
-36,-17,33
-35,-17,33
-33,-19,39
-30,-20,41
-32,-23,47
-27,-23,56
-21,-27,54
-13,-27,56
-2,-28,56
4,-24,52
9,-20,48
19,-16,46
24,-16,40
29,-16,38
30,-15,28
31,-12,27
33,-16,25
31,-18,21
34,-21,19
29,-23,20
30,-24,20
26,-28,20
24,-33,26
22,-36,30
21,-39,31
20,-41,35
20,-42,35
18,-37,35
17,-31,37
17,-30,34
19,-22,33
20,-18,29
21,-15,20
21,-10,18
22,-11,14
23,-11,6
22,-13,4
19,-16,-1
18,-22,-3
14,-29,-6
11,-35,-10
8,-35,-9
3,-36,-10
1,-35,-10
-2,-31,-5
-4,-30,-3
-7,-24,-1
-13,-21,0
-12,-18,5
-18,-19,7
-16,-19,8
-19,-19,7
-18,-22,9
-20,-23,5
-18,-28,6
-18,-29,1
-18,-32,-1
-19,-34,0
-19,-39,-6
-17,-42,-2
-16,-43,-6
-14,-45,-5
-9,-46,-5
-7,-42,-3
-7,-35,-3
-8,-32,2
-6,-23,2
-4,-16,4
-3,-10,6
-4,-4,10
-2,-2,9
-2,2,10
-1,0,7
1,-2,9
1,-5,7
2,-10,8
2,-14,2
7,-23,4
8,-27,2
10,-28,-1
11,-28,-3
11,-26,-6
16,-24,-8
18,-18,-7
18,-17,-14
21,-17,-9
18,-16,-13
18,-14,-14
16,-15,-14
11,-19,-14
6,-23,-16
2,-26,-12
-2,-29,-14
-10,-33,-15
-9,-35,-13
-10,-38,-14
-11,-38,-14
-4,-34,-14
2,-33,-13
5,-30,-7
11,-26,-7
18,-22,-2
21,-18,0
19,-14,3
20,-14,4
18,-11,8
12,-11,12
6,-12,8
4,-12,13
-2,-10,6
0,-12,7
-4,-14,2
-6,-13,5
-6,-12,4
-4,-15,5
-3,-19,3
-2,-17,3
0,-18,3
3,-19,5
4,-14,3
7,-14,4
9,-13,6
9,-12,7
8,-15,8
10,-15,8
14,-19,10
13,-21,12
12,-21,9
12,-27,6
10,-28,3
7,-33,4
6,-34,3
4,-38,0
4,-40,0
1,-39,-4
-1,-41,0
1,-40,0
1,-39,0
2,-39,2
4,-39,1
3,-37,0
5,-38,2
4,-41,3
2,-43,0
3,-46,6
5,-46,4
-1,-44,4
-2,-41,2
-2,-45,2
-2,-44,2
0,-42,3
0,-38,3
1,-37,4
4,-36,6
1,-29,6
0,-29,12
2,-26,11
0,-25,12
2,-21,9
-3,-17,9
1,-21,15
-2,-19,11
-2,-20,13
-2,-19,12
-1,-16,13
-1,-15,9
0,-18,12
2,-17,12
1,-18,12
5,-22,11
6,-21,14
7,-24,11
11,-27,13
11,-30,12
12,-33,11
13,-33,13
13,-35,16
18,-36,16
15,-36,10
17,-37,14
16,-36,10
19,-38,11
20,-36,8
21,-35,9
20,-34,10
21,-32,4
22,-30,4
20,-25,5
13,-28,1
10,-21,0
5,-25,1
3,-25,0
0,-24,0
-6,-28,0
-8,-28,-2
-10,-27,-1
-11,-28,-3
-12,-30,-1
-13,-34,-1
-13,-40,-4
-12,-41,-1
-12,-48,-2
-15,-44,-4
-13,-47,-1
-13,-46,-3
-14,-48,1
-17,-47,0
-14,-46,0
-14,-42,2
-11,-38,0
-9,-33,0
-8,-29,1
-10,-20,-2
-2,-18,1
-7,-15,-1
-2,-13,-6
0,-8,0
0,-6,0
3,-8,0
2,-8,1
5,-6,-1
10,-7,-1
10,-12,0
11,-12,0
11,-17,-3
12,-21,-1
14,-22,-2
15,-21,-3
13,-22,0
18,-26,1
17,-25,1
20,-26,-2
21,-22,2
29,-20,1
28,-19,2
32,-15,4
36,-15,4
38,-8,10
45,-7,7
49,-5,10
53,-2,11
53,0,14
52,-1,16
56,0,16
60,-5,20
62,-6,28
64,67,27
67,16,26
71,0,28
77,-14,30
87,-19,27
95,-23,31
103,-20,31
111,-15,29
117,-24,28
118,-25,30
117,-26,33
112,-25,34
104,-23,30
96,-19,29
84,-18,30
73,-14,29
62,-10,23
52,-8,23
43,-7,20
36,-6,18
26,-6,17
22,-6,14
21,-5,15
16,-4,10
13,-6,10
10,-6,7
7,-12,2
6,-10,2
6,-15,0
0,-22,-3
0,-22,-2
2,-25,-8
-4,-28,-8
-8,-32,-9
-10,-36,-12
-12,-39,-12
-15,-36,-13
-20,-35,-14
-21,-31,-18
-26,-31,-19
-30,-26,-21
-29,-24,-21
-35,-23,-18
-34,-19,-18
-36,-20,-17
-31,-18,-15
-30,-16,-16
-24,-17,-14
-22,-16,-12
-21,-17,-12
-17,-18,-12
-16,-20,-10
-13,-21,-5
-11,-20,-6
-9,-18,0
-7,-14,-3
-1,-12,-2
4,-12,-3
11,-10,-1
14,-6,-1
20,-4,0
22,-2,2
21,3,0
22,0,1
19,-2,5
17,-4,4
15,-5,9
13,-8,8
8,-7,6
9,-12,7
6,-9,4
7,-8,4
6,-11,2
7,-9,3
9,-6,2
8,-8,3
12,-6,3
10,-3,2
11,-4,0
11,-6,0
10,-5,0
9,-7,0
6,-4,-3
7,-7,-1
4,-5,-3
2,-8,-2
1,-10,-5
-3,-11,-7
-4,-11,-8
-5,-14,-11
-4,-13,-14
-8,-14,-12
-7,-14,-15
-7,-12,-17
-6,-11,-15
-9,-11,-18
-10,-8,-18
-11,-5,-17
-13,-5,-18
-19,-2,-13
-19,-5,-9
-23,-5,-10
-20,-4,-9
-17,-5,-9
-19,-1,-8
-19,-7,-10
-14,-4,-11
-10,-9,-11
-12,-7,-8
-10,-9,-10
-11,-10,-11
-10,-15,-6
-10,-13,-6
-9,-15,-5
-8,-16,-6
-9,-15,-2
-10,-14,-4
-9,-12,-3
-9,-7,-8
-8,-3,-7
-9,-2,-6
-9,-2,-6
-7,-1,-3
-6,-1,-3
-1,-3,-3
-4,0,-4
-2,-4,0
0,-5,-1
0,-8,-4
0,-10,-4
1,-10,-4
7,-12,-3
4,-7,-5
3,-8,-5
3,-6,-3
3,-7,-4
1,-6,-6
1,-7,-5
0,-6,-6
-1,-4,-3
-2,-5,-5
-2,-6,-8
-4,-7,-6
-6,-4,-5
-3,-4,-4
-6,-5,-6
-7,-4,-7
-10,-6,-6
-9,-7,-5
-15,-10,-6
-17,-10,-4
-20,-9,-7
-25,-12,-6
-26,-13,-2
-31,-14,-5
-36,-14,-3
-39,-11,0
-43,-6,1
-44,-3,2
-48,2,1
-42,5,2
-33,12,2
-28,19,1
-16,25,-1
-5,28,0
6,31,1
15,31,0
24,26,-1
30,27,1
33,22,2
30,17,0
34,5,0
32,3,0
27,-3,0
29,-9,-1
25,-13,-4
23,-18,-6
22,-22,-7
19,-23,-9
19,-26,-7
15,-25,-8
18,-25,-10
18,-23,-6
16,-19,-7
17,-20,-8
15,-17,-5
16,-14,-7
15,-13,-7
12,-13,-4
13,-11,-4
12,-12,-3
13,-14,-4
13,-12,-3
12,-12,-2
8,-12,-4
5,-12,-5
3,-9,-3
0,-9,-8
-1,-8,-7
-4,-5,-6
-6,-3,-8
-9,-6,-11
-6,-6,-9
-8,-8,-8
-4,-9,-7
-3,-9,-6
0,-8,-8
2,-7,-8
3,-6,-4
4,-5,-3
2,-4,-7
2,-1,-6
4,-2,-2
0,0,-3
-2,3,-3
-1,4,0
-2,5,1
0,6,-3
3,2,-1
7,4,-3
6,3,-5
10,2,-1
10,1,-1
13,0,0
8,-3,-1
9,-5,2
4,-8,1
2,-7,1
-1,-7,0
-5,-6,1
-8,-8,0
-7,-5,2
-8,-3,0
-9,-2,3
-6,-4,0
-9,-1,1
-6,-1,0
-3,-1,1
-4,-4,-1
-1,-2,-2
1,-3,-3
2,-4,-1
3,-9,-5
4,-8,-2
6,-12,-1
1,-12,-3
4,-14,0
4,-14,-2
2,-13,-4
0,-16,-4
-1,-14,-5
-1,-17,-4
-4,-14,-6
-6,-12,-2
-5,-12,-7
-10,-8,-5
-11,-11,-4
-11,-12,-7
-13,-10,-4
-15,-5,-6
-13,-5,-6
-13,-4,-3
-14,-6,-5
-13,-2,-4
-16,-4,-6
-16,-4,-4
-13,-3,-4
-15,-3,-4
-14,-2,-5
-13,-4,-5
-9,-2,-2
-10,-5,1
-7,-5,-3
-4,-6,0
-2,-3,-3
-1,-4,-3
-4,-3,-2
-3,-3,-2
1,-3,0
1,-2,1
2,-1,0
0,-1,-1
3,-1,3
3,0,2
4,0,3
4,0,4
5,0,2
7,1,2
10,0,1
7,1,0
7,2,0
8,1,2
8,4,4
10,0,0
9,0,2
7,1,2
6,1,3
7,4,1
6,1,3
6,1,4
7,2,4
6,4,4
6,-1,5
5,3,5
3,1,3
3,3,5
1,1,3
3,2,3
3,0,4
1,0,4
6,-2,3
6,0,3
3,1,0
2,-2,3
3,-3,0
5,-2,1
5,-2,3
4,0,-1
4,1,2
6,0,0
6,0,1
5,1,2
2,-3,4
0,0,2
1,-2,5
0,-2,3
4,-3,3
2,-2,1
4,-1,2
4,-1,0
1,-1,0
3,2,1
4,1,-1
4,2,-1
5,0,0
4,-1,0
7,0,-3
5,0,-2
4,1,0
7,0,0
6,0,3
5,0,2
4,0,1
5,0,2
4,-3,3
5,-3,1
2,-3,1
3,-5,2
3,-1,3
0,2,1
0,-1,1
1,-3,0
1,-1,1
2,1,0
1,-3,0
1,-3,0
0,0,0
0,0,0
0,0,1
0,-1,0
-1,-1,1
0,-1,3
0,-1,1
1,-1,4
1,-1,0
3,-4,2
1,-6,1
3,-2,2
-1,-3,0
4,-3,0
5,-3,-1
5,0,0
0,1,-5
-3,0,-1
-5,5,-4
-9,4,-1
-12,2,0
-14,2,0
-19,3,3
-21,4,7
-22,5,8
-19,6,8
-16,10,7
-10,7,10
-4,9,8
0,9,7
11,6,5
13,5,5
19,2,4
22,2,6
22,2,4
22,2,6
18,2,7
16,0,4
9,0,5
6,0,4
7,0,3
2,-2,9
4,0,6
2,0,6
3,-2,5
3,-4,3
3,-2,5
5,-2,3
4,-1,2
3,-2,2
5,-5,2
6,-2,3
5,-4,1
7,-2,1
6,-3,0
2,-6,3
4,-4,3
5,-6,-2
3,-7,0
2,-3,1
5,-7,1
2,-3,0
1,-1,-1
1,-1,-2
2,1,0
-3,0,-1
-2,-1,-4
-4,-1,1
-3,-4,0
-5,-4,-2
0,-8,-2
0,-2,1
-3,0,-1
-3,0,2
-1,1,0
-1,1,2
-4,3,1
-4,3,2
-5,1,1
-4,3,1
-4,2,1
-1,5,1
-1,5,2
0,7,3
8,5,3
12,7,1
13,6,-1
13,6,0
13,5,-1
12,2,2
11,5,1
9,5,2
7,-1,5
6,3,2
1,1,1
3,1,3
0,0,3
1,1,3
-1,0,0
1,1,2
2,0,3
4,1,2
4,1,3
4,-3,1
6,0,3
8,0,1
6,0,0
7,-1,1
9,0,2
7,-2,1
10,-2,-1
11,-2,3
11,-1,1
11,3,1
15,-4,3
13,-2,1
13,-2,1
11,-1,1
11,-1,0
13,0,1
8,-1,-3
8,1,0
8,2,1
5,3,0
3,3,0
3,0,0
1,5,2
0,5,2
4,1,4
3,0,2
5,1,3
3,3,3
4,-1,3
5,-5,4
5,-3,5
6,-2,3
5,-2,4
2,-1,4
5,0,6
6,1,5
6,0,2
5,0,4
3,2,2
4,1,2
6,3,2
5,3,0
3,4,0
4,4,-2
4,5,0
2,5,0
4,0,3
5,3,-1
5,-4,1
7,-1,-1
2,0,-1
6,0,0
6,-2,1
3,0,-1
3,0,-2
0,1,1
2,3,-2
0,2,1
1,3,0
0,4,1
0,3,0
0,3,1
-1,2,2
0,0,-1
0,1,0
1,3,1
2,2,-5
2,2,0
3,0,0
3,-1,0
3,-1,1
3,-1,1
6,1,0
3,2,0
3,3,0
4,3,2
3,2,1
1,5,4
1,4,3
2,1,3
0,4,3
1,3,3
3,1,3
4,-1,7
2,2,0
4,0,2
5,1,0
6,2,1
6,-1,1
7,1,0
5,3,1
6,3,1
7,3,0
5,3,0
5,5,0
7,4,0
5,1,3
7,1,2
4,1,2
6,2,4
4,0,2
2,2,3
4,2,0
4,1,0
2,0,0
5,0,0
3,3,0
2,6,-2
2,8,0
1,5,0
1,5,-1
2,6,-1
3,7,-1
4,5,-2
0,3,0
0,4,-3
0,0,-2
0,-1,-1
1,-1,-2
1,-2,-4
1,-4,-4
1,-1,-1
-1,0,-4
1,-1,0
-2,0,0
0,0,-3
3,4,-3
3,6,-4
4,5,-4
2,7,-5
0,7,-4
-6,8,-5
-9,9,-5
-12,11,-1
-14,11,-1
-16,7,3
-18,9,3
-20,10,7
-14,9,8
-11,10,5
0,7,7
4,4,6
12,5,4
22,4,3
27,4,1
29,1,2
32,1,2
30,-1,4
29,-3,3
22,1,3
20,-5,5
16,-3,4
13,-5,4
9,-6,1
5,-4,5
3,-7,7
1,-5,4
0,-7,6
1,-4,3
1,-5,2
0,-5,2
0,-4,4
2,-3,0
2,-4,0
-1,1,-3
0,-2,-3
4,1,-4
0,0,-5
0,-3,-4
2,-7,-1
0,-4,-4
3,-9,0
3,-5,-1
1,-8,-1
-1,-7,-1
-1,-6,-2
-2,-8,0
-5,-3,-1
-4,-5,1
-6,-4,2
-8,0,1
-7,-1,0
-7,1,2
-6,1,-1
-2,0,0
-3,0,-2
-1,0,-1
-1,0,0
-3,0,-3
-1,0,0
-2,0,4
0,0,4
-4,0,4
-2,1,3
-3,3,6
-2,5,4
2,5,6
4,4,6
9,7,7
10,5,6
13,2,5
13,3,4
14,2,3
12,1,6
11,1,7
9,1,3
8,1,9
2,2,2
3,4,5
1,6,5
4,4,4
5,10,4
4,9,3
4,10,3
7,10,0
8,11,4
8,8,1
11,5,3
12,2,0
12,0,3
12,-1,5
12,-5,5
16,-5,6
14,-9,4
13,-6,3
12,-6,2
13,-8,3
11,-8,2
11,-5,2
8,-8,3
8,-4,0
10,-6,-1
7,-2,0
9,0,-2
4,-2,-4
2,1,0
-1,2,-2
0,2,-3
-4,1,-2
-5,1,0
-10,0,1
-9,-3,0
-10,-4,0
-11,-5,1
-10,-5,4
-7,-7,3
-7,-4,6
-7,-3,4
-3,-1,4
-1,0,4
0,1,5
1,2,6
1,-1,6
2,1,5
5,0,7
5,-3,6
6,0,5
8,-5,8
7,-3,5
6,-4,8
7,-6,8
10,-6,7
11,-1,6
7,-1,7
9,0,5
10,-1,7
8,0,3
9,4,6
10,3,6
10,1,3
9,0,7
9,0,8
6,0,7
8,0,5
5,-2,2
7,-2,0
3,-1,1
4,-2,0
3,0,0
1,-3,-2
4,-5,0
1,-3,1
0,-3,-1
-2,-1,0
-2,0,1
-3,0,0
-2,-1,0
0,0,0
-1,-3,0
-1,0,2
-3,-1,0
-2,1,0
3,1,1
3,1,1
4,-3,1
6,0,3
2,0,3
7,0,4
7,-2,3
5,2,4
7,0,6
6,1,5
9,3,4
7,3,3
8,3,5
7,5,0
9,5,7
8,4,2
9,7,5
11,5,2
10,4,4
9,2,3
8,1,3
5,-1,6
6,-1,3
6,-1,2
5,1,3
6,0,4
8,0,7
6,-2,5
9,-1,7
8,2,5
11,3,4
12,6,3
12,8,1
14,11,-1
12,11,0
10,13,0
6,10,-2
2,11,-1
0,9,-1
-8,8,0
-11,6,5
-14,3,4
-16,3,10
-14,3,9
-9,3,11
-1,5,6
7,4,8
18,4,7
24,3,3
33,3,5
35,1,6
34,0,3
34,0,5
30,1,9
25,-2,9
17,-1,9
9,0,8
3,0,5
2,3,7
-6,3,5
-6,5,6
-4,4,9
-2,6,6
0,4,7
4,1,9
3,3,7
9,0,5
12,1,4
15,2,6
16,-1,6
15,-1,4
14,-1,3
13,-1,4
10,-2,1
11,-3,1
9,-6,3
8,-3,1
7,-8,5
6,-5,2
4,-7,1
5,-8,3
5,-4,3
2,-4,2
4,-2,-1
0,-1,1
1,0,4
0,-1,2
1,2,2
1,2,1
0,7,0
0,7,2
1,4,5
-2,3,2
-2,0,3
-1,0,2
1,3,4
1,4,4
1,3,3
4,4,4
7,6,5
13,7,4
17,7,3
18,8,5
16,4,6
16,3,4
11,1,4
14,0,8
10,0,8
8,-2,6
8,1,8
7,3,7
2,2,8
5,2,7
4,5,6
5,5,4
6,5,4
9,3,4
9,4,5
15,0,7
17,1,9
18,0,6
19,-2,7
17,-1,6
19,-3,6
17,-2,4
18,-1,3
15,-5,3
15,-4,1
14,-3,0
12,-2,0
11,-2,1
11,0,0
8,-3,0
6,-2,0
8,0,0
7,0,-2
8,4,-3
6,3,0
3,2,-1
1,3,0
0,5,-3
-3,6,-3
-7,6,-3
-8,4,0
-8,5,-2
-5,4,-1
-10,2,-2
-8,2,-1
-8,3,0
-9,1,0
-8,4,-1
-6,0,2
-8,2,0
-4,1,1
-3,2,3
-3,2,2
-3,4,3
1,2,2
-2,2,3
0,4,1
2,1,4
5,3,4
4,6,3
6,5,1
6,1,4
8,1,6
8,2,5
9,1,2
7,4,-2
9,3,2
11,0,1
14,0,2
14,1,1
12,2,-1
11,1,0
13,5,0
8,2,-1
9,5,0
8,4,0
6,5,-1
6,3,-2
5,2,-2
2,7,-3
1,4,-5
4,2,-2
2,3,-6
1,4,-1
0,2,-2
-1,0,-2
-4,1,0
-2,0,0
-3,1,-1
-4,0,-2
-2,-1,1
-4,-5,2
-5,-2,2
-6,-1,3
-3,0,1
0,0,3
1,0,1
1,2,0
7,5,1
6,8,-1
11,10,-1
12,9,-3
13,7,-5
12,8,-1
9,10,-2
5,5,-2
1,7,2
-3,6,1
-5,3,6
-11,2,9
-13,3,8
-11,3,9
-7,1,8
3,1,5
13,4,6
22,5,2
29,2,0
33,2,0
36,0,0
36,0,2
27,0,1
24,0,0
16,0,0
8,1,3
0,1,1
-4,5,2
-7,4,0
-12,7,-1
-13,6,-1
-9,8,1
-7,5,3
-5,4,0
0,5,5
2,5,0
2,1,0
3,4,-1
4,1,1
3,-1,0
4,-4,-1
3,-5,0
2,-5,-1
1,-5,-4
1,-9,-1
0,-5,-3
2,-5,-5
0,-3,0
0,-5,-5
1,-1,-2
1,-3,-1
1,0,0
0,-2,-1
1,1,0
2,-1,-1
2,1,-5
0,1,-1
1,5,-5
2,4,-1
4,4,-3
3,5,-4
0,3,-6
0,3,-3
-4,2,-2
-3,2,0
-4,1,2
-1,3,0
0,4,2
0,2,1
1,4,0
7,3,0
10,5,0
15,4,0
17,5,-1
18,3,0
20,5,1
17,5,1
16,0,0
14,3,1
10,0,1
9,-1,1
6,-1,1
4,-3,0
0,0,0
0,0,2
-3,3,-1
-2,0,-3
-2,1,-1
-2,3,-1
1,0,0
1,1,0
2,2,0
3,-1,2
4,0,0
6,-1,2
7,-5,1
7,-2,1
7,-4,3
6,-3,2
8,-4,2
8,-5,1
12,-5,1
11,-4,0
11,-4,0
13,-3,-5
12,0,-5
9,-1,-4
8,0,-5
6,0,-6
6,0,-5
1,2,-5
1,2,-6
0,6,-2
0,5,0
1,3,-4
0,4,-3
-1,6,-1
0,2,0
0,1,-2
0,0,-1
-1,0,1
0,0,2
0,1,1
-1,2,1
1,-2,2
0,0,0
2,1,1
3,0,4
4,2,-1
6,4,-1
10,5,0
7,3,-1
7,4,2
6,3,-1
8,4,-2
6,4,0
6,3,0
5,3,0
7,3,3
7,4,1
6,3,1
11,5,1
7,6,-1
7,4,2
8,4,0
9,3,-1
7,3,1
9,3,1
10,2,0
11,2,-3
9,2,-1
8,4,-2
6,1,0
8,1,-2
9,0,-1
5,0,-1
6,0,0
1,0,0
0,1,0
1,3,0
-1,4,-1
3,4,1
3,4,0
2,6,-1
5,3,-1
8,2,0
5,0,-2
5,0,-3
6,-4,-4
7,-5,-3
5,-10,-6
8,-9,-3
3,-7,-4
5,-9,-4
3,-9,-5
5,-7,-3
4,-8,1
6,-9,3
5,-7,0
10,-1,0
5,-1,0
7,1,-1
9,4,-1
8,9,-3
7,5,0
0,14,-5
0,13,-3
0,8,-4
-5,13,0
-10,10,-1
-12,11,1
-15,12,4
-14,12,5
-11,11,4
-6,14,7
2,7,7
11,10,5
20,8,6
26,8,4
34,7,3
39,8,0
40,3,0
33,5,0
32,1,2
27,1,-1
20,0,0
12,0,0
7,0,2
0,1,1
0,0,2
-4,3,2
-3,2,4
-3,3,5
-2,6,2
0,7,1
0,10,1
3,7,0
1,6,2
4,7,2
7,4,-1
6,2,0
3,-1,0
5,2,0
8,-1,-1
7,-2,-1
8,-4,-1
7,-4,-3
9,-9,-1
6,-8,-1
9,-7,0
6,-5,0
6,-5,-1
8,-2,2
8,-3,2
8,-3,3
5,3,1
7,0,0
5,0,2
7,1,1
6,1,1
8,1,3
5,1,1
6,0,4
5,-2,4
6,0,4
4,-1,3
4,-1,4
2,1,1
3,0,6
4,1,7
5,3,8
9,7,3
12,7,3
18,5,1
23,8,0
26,8,-3
22,9,-5
17,8,-6
14,5,-10
5,5,-12
-4,3,-13
-17,2,-16
-26,0,-15
-36,0,-20
-45,0,-20
-48,-7,-18
-58,-6,-19
-61,-4,-18
-65,-8,-18
-67,-5,-24
-68,-5,-25
-66,-4,-28
-63,-4,-28
-62,-5,-25
-59,-4,-25
-58,-5,-27
-53,-3,-26
-51,-5,-25
-47,-5,-27
-47,-6,-25
-45,-7,-26
-43,-9,-22
-42,-9,-25
-36,-8,-22
-36,-10,-19
-36,-10,-23
-32,-10,-21
-33,-10,-19
-33,-11,-17
-30,-8,-16
-27,-4,-14
-26,-5,-16
-24,-2,-16
-22,-1,-11
-19,0,-10
-16,0,-6
-11,1,-7
-4,1,-3
0,0,-3
2,0,2
4,-1,1
9,0,3
16,0,7
22,-4,11
22,-3,10
28,-2,14
29,-2,16
35,-5,18
40,-2,18
41,-1,17
44,-2,19
48,0,17
48,3,23
48,4,21
50,5,23
50,2,23
49,4,21
52,3,28
50,4,22
54,4,24
52,1,23
55,3,21
56,1,25
56,-4,24
56,-3,21
53,-2,20
52,-2,19
53,-5,22
50,-3,18
46,-3,18
45,-2,18
43,0,16
42,1,17
40,-2,16
39,0,16
40,-1,13
36,-2,12
36,0,13
35,-1,11
34,0,14
33,-1,13
30,0,13
31,0,10
29,1,10
30,0,7
28,0,11
25,0,9
24,0,8
25,-2,11
28,-4,8
27,-5,11
29,0,11
29,0,9
30,-1,11
30,0,12
29,1,12
31,0,12
31,0,13
28,-3,14
34,-1,14
35,-3,14
35,-1,12
35,-4,13
39,-4,14
38,-5,16
38,-4,11
36,-4,9
40,-4,13
40,-5,12
44,-6,12
40,-4,9
42,-4,10
41,-3,12
39,-4,13
38,-5,13
37,-4,13
34,-2,12
34,-6,14
32,-6,10
29,-6,10
26,-7,8
27,-7,11
25,-4,11
22,-5,11
19,-2,9
18,2,8
15,7,4
15,12,3
14,9,2
10,15,1
6,17,3
1,15,2
-1,15,5
-6,15,2
-10,12,0
-14,12,0
-16,10,1
-21,10,5
-19,8,1
-19,5,3
-14,8,3
-7,6,2
-1,8,2
6,5,0
13,3,0
17,6,0
25,3,-2
23,0,-2
20,0,-1
18,0,1
13,0,-1
7,1,-1
6,0,-1
-1,3,1
-4,3,1
-8,5,0
-5,5,1
-5,1,0
-5,1,-1
-3,3,0
-3,0,-3
-2,0,-5
1,0,-3
2,1,-5
3,-3,-3
2,-1,-5
4,-3,0
7,-3,-5
4,-3,-6
5,-3,-1
2,-5,-4
2,-6,0
2,-5,-2
0,-6,0
0,-2,-2
0,-1,-2
-1,-1,-1
0,2,-2
-1,2,-5
-4,2,-6
-5,2,-4
-6,3,-5
-8,0,-3
-10,0,-4
-9,3,-5
-11,4,-3
-7,2,-2
-9,7,-8
-7,4,-2
-4,8,-1
-7,6,1
-7,3,0
-6,5,-3
-4,0,-3
-3,1,-3
-3,-2,0
-4,1,-1
-3,0,0
-1,5,-1
0,8,1
1,8,4
0,10,0
1,12,0
0,13,1
2,10,3
1,8,2
1,8,3
-3,9,2
0,7,1
-1,4,0
-3,5,4
1,2,1
-1,1,3
4,0,3
5,1,4
4,1,3
4,2,0
5,3,4
7,3,5
9,4,6
7,3,3
7,3,0
9,2,4
9,0,2
7,1,3
12,-1,2
9,-2,1
7,-2,-1
9,-2,1
11,-1,0
4,0,-3
6,-3,-4
7,-1,-2
4,0,-3
3,0,-4
0,-2,-8
-1,-2,-6
-2,-5,-5
-3,2,-8
-7,0,-5
-10,2,-3
-11,3,-1
-13,4,-3
-16,5,0
-13,4,1
-13,4,2
-13,7,0
-11,4,-2
-10,7,-1
-10,2,-2
-9,2,-2
-8,1,1
-8,0,-2
-6,-3,-1
-6,-4,-3
-1,-1,1
-3,-5,1
-3,0,-1
0,-4,2
0,1,0
4,0,2
2,0,1
3,2,3
3,1,3
4,-2,1
5,0,2
7,-3,2
8,-3,0
7,-1,2
7,-1,2
8,-2,0
10,-2,1
7,-4,0
6,-5,2
7,-2,0
5,-13,1
4,-10,0
5,-12,3
5,-7,3
1,-11,0
3,4,0
0,1,3
2,1,0
-1,5,1
2,6,1
-1,7,3
-1,12,3
1,14,0
0,17,2
0,16,1
1,15,0
2,7,2
3,9,1
2,10,1
3,8,0
3,8,0
3,6,1
5,8,4
3,7,6
4,7,3
4,7,4
2,12,4
2,7,0
5,8,1
4,5,3
5,5,1
3,3,1
1,2,4
3,0,1
2,0,4
1,0,3
0,-2,0
2,-1,1
0,-1,2
1,-5,2
1,-6,1
0,-1,0
-2,-4,4
2,-5,6
3,-2,0
3,-2,2
1,1,4
3,2,-1
5,2,3
5,4,-1
4,5,-1
2,6,0
3,5,-2
1,8,-3
-4,6,-2
-7,2,-2
-9,2,-1
-18,4,0
-18,1,5
-20,6,7
-20,4,8
-12,1,7
-8,2,5
0,3,9
10,2,6
15,1,5
23,2,5
28,-1,5
29,-3,5
27,-6,4
26,-7,6
19,-6,4
15,-7,6
10,-5,6
2,0,3
-1,1,6
-5,2,6
-9,4,5
-8,6,5
-9,7,3
-4,4,4
-1,5,3
1,3,1
2,1,4
5,0,3
4,-1,2
5,-2,3
6,-5,4
5,-5,0
6,-5,-1
4,-6,1
6,-5,0
4,-7,0
4,-7,0
6,-8,1
6,-7,2
2,-7,1
3,-4,0
1,-3,0
1,-1,1
-3,0,2
0,0,1
-1,2,2
0,2,0
2,1,3
1,1,3
2,2,4
2,2,4
1,0,4
2,-2,5
1,0,6
2,-2,6
-1,2,6
-2,0,6
0,2,7
0,4,7
0,4,9
6,4,10
8,6,7
9,6,5
10,4,8
14,6,6
9,6,10
12,4,10
10,2,12
6,4,13
3,3,10
2,3,11
0,4,12
0,2,10
0,1,9
1,2,9
0,0,9
7,0,7
9,1,8
9,1,6
15,-3,7
13,-2,5
17,-3,5
19,-5,1
18,-3,6
17,-4,4
15,-1,3
15,-2,2
14,-4,6
12,-1,1
10,-1,1
5,-2,0
3,-2,1
4,-1,-2
3,-1,0
0,-1,-1
0,-1,-3
1,0,0
0,1,-2
-3,1,-3
-3,1,-2
-5,0,-2
-7,0,-3
-8,1,-2
-9,0,-1
-10,1,-1
-12,0,0
-11,-1,2
-12,1,3
-6,2,0
-9,2,1
-4,1,1
-4,2,3
-1,1,2
-1,2,5
0,0,2
-2,1,5
3,2,7
1,6,3
1,3,3
6,4,5
5,5,5
4,6,4
7,3,6
4,4,5
5,4,7
9,3,7
7,2,6
10,1,5
10,3,6
10,0,4
14,3,3
12,3,4
12,2,3
11,5,3
10,5,2
9,4,1
5,4,0
8,3,-2
7,0,0
6,3,0
4,3,0
3,1,-2
4,1,2
1,0,-1
0,1,-1
0,0,0
-3,0,1
-4,-1,0
-4,2,1
-3,1,2
-2,3,1
-4,2,2
-4,1,2
0,0,0
1,4,1
0,5,1
2,5,1
5,5,2
9,5,3
8,6,0
10,7,-1
5,10,-1
3,5,-2
0,9,0
0,7,1
-6,5,4
-9,2,7
-11,2,8
-10,2,10
-9,2,9
-2,5,8
8,4,10
13,3,9
27,5,3
33,7,1
39,8,1
43,4,2
41,6,3
35,6,1
29,9,-1
21,7,-1
14,10,-2
5,13,2
-1,15,0
-3,17,5
-8,16,1
-8,15,2
-7,16,2
-4,13,4
-3,12,2
0,9,1
4,5,1
5,2,0
7,-2,1
8,-3,2
9,-6,2
7,-8,2
6,-10,0
5,-11,1
2,-9,0
0,-10,0
2,-9,-1
2,-7,-2
0,-8,-3
2,-7,-2
1,-6,1
-1,-4,-1
0,-1,2
0,-2,1
1,0,0
-2,0,0
0,1,0
0,0,2
3,1,1
2,-1,1
2,-1,3
7,0,1
3,-2,3
0,0,4
0,-5,2
-1,-1,4
0,-3,7
0,-1,5
1,-1,4
5,0,4
5,2,0
13,1,4
12,6,0
14,8,0
16,8,2
14,6,0
12,3,0
10,3,-1
12,3,2
5,1,1
2,0,3
3,-1,3
2,0,1
0,0,4
-2,5,3
0,1,4
1,3,-1
3,3,0
6,0,1
9,1,0
9,0,2
9,0,1
11,-3,1
7,0,1
11,-3,0
12,-5,0
9,-4,3
7,-5,0
8,-3,0
4,-3,-1
6,-4,0
5,-3,0
6,-5,1
6,0,-2
5,0,0
9,1,-3
7,1,-4
6,0,0
5,0,-3
3,0,-2
2,1,-1
1,0,-3
-3,1,0
-5,3,-2
-5,2,-3
-4,0,-2
-5,1,-3
-6,0,-2
-5,0,0
-3,0,0
-6,-2,0
-5,-2,-2
-1,-2,0
-4,-2,-3
-5,2,2
-4,0,3
-4,1,0
-1,0,1
-3,0,2
0,2,2
0,3,-1
-1,5,0
2,2,-1
5,1,-1
3,1,-1
5,3,0
7,1,0
8,1,0
6,2,-2
7,3,-1
6,1,-1
5,2,-1
3,3,2
6,0,-2
5,6,0
4,2,0
8,4,0
7,5,-1
4,7,0
6,4,3
7,4,1
5,4,-1
2,3,-3
3,1,0
4,0,0
0,0,0
0,-1,-1
0,-2,-2
5,-2,1
2,-3,1
1,0,0
2,1,1
4,1,1
4,3,0
4,2,1
4,6,-4
8,10,-1
8,9,-2
3,7,-2
0,11,-2
0,15,-2
-7,12,0
-8,11,1
-14,9,3
-15,8,3
-14,4,7
-12,6,4
-7,8,10
-2,7,9
10,5,6
20,6,5
29,4,3
39,4,5
40,6,3
44,5,3
39,1,1
36,0,2
29,0,2
22,-4,1
15,-4,2
5,-1,0
0,-2,1
-6,0,2
-7,0,0
-10,3,2
-10,4,3
-7,6,1
-9,7,-1
-2,5,0
-4,7,-2
-1,4,0
-1,0,0
0,2,0
1,0,0
-2,0,1
0,-5,0
2,-6,-2
1,-6,-1
3,-7,-1
4,-4,0
3,-6,-4
4,-6,-2
5,-5,-3
4,-4,-4
4,-2,0
2,-2,-3
4,-2,-2
0,2,1
2,2,0
0,3,-2
2,4,0
1,3,1
5,3,0
6,3,2
8,2,2
7,3,3
3,0,2
7,2,2
5,1,2
2,0,4
1,1,6
1,0,4
4,2,2
4,5,5
5,5,1
13,9,3
16,8,0
18,9,0
18,9,0
18,8,-1
20,5,1
18,3,-1
11,1,-2
11,0,2
5,1,-1
3,-3,2
0,-2,1
-4,-1,1
-3,-1,1
-2,0,1
-3,2,2
0,4,0
0,1,0
3,3,1
2,4,0
4,3,-1
7,1,2
6,-1,2
6,0,3
8,0,0
7,-3,1
9,-1,3
10,-4,5
10,-2,-2
14,0,3
12,0,2
13,1,0
11,1,0
15,2,-1
12,3,-2
12,1,-4
8,5,-3
9,4,-5
6,8,-3
5,4,-3
4,2,-2
1,5,-2
2,3,-2
-3,1,-3
-2,1,0
-3,3,-3
-3,2,-3
-5,3,-1
-3,5,-1
-4,4,-1
-4,6,-1
-5,6,-4
-6,7,-7
-4,7,-3
-5,10,-3
-1,10,-4
0,9,-4
0,12,-3
1,11,-4
0,10,-3
2,9,-3
1,9,-4
0,10,-2
5,7,0
6,7,2
7,6,0
5,4,0
8,0,0
6,0,0
7,2,0
5,-1,1
7,0,-2
7,2,0
6,-1,-1
5,3,0
6,0,2
6,2,0
9,3,1
6,3,0
7,5,0
6,3,0
4,2,-1
4,3,-1
5,1,-1
3,3,-4
3,2,-4
4,0,0
4,1,0
2,1,0
1,1,0
3,1,0
1,-1,0
2,1,-2
0,5,-3
3,3,-1
4,0,0
2,2,-2
4,3,-1
2,3,-4
2,5,-1
2,5,-4
1,0,-1
3,5,-1
3,5,-1
4,5,0
3,5,-3
3,6,-1
5,8,-2
4,9,0
4,9,-3
6,7,-1
4,9,-4
5,7,-1
6,7,0
8,5,-3
8,6,0
10,5,1
9,2,0
9,1,-1
8,1,0
8,4,2
10,3,2
10,2,3
8,1,6
10,1,4
12,1,2
15,1,5
14,-2,4
14,4,6
14,3,5
12,2,6
12,0,4
12,3,2
14,0,6
12,-1,3
13,-2,4
11,-3,7
11,-4,1
13,-6,5
9,-4,2
10,-4,4
11,-5,5
12,-4,4
11,-3,2
13,-1,4
13,0,-1
13,0,0
6,2,-5
2,6,-3
0,2,-2
-1,2,0
-6,1,-1
-12,2,1
-14,4,5
-16,1,5
-15,3,5
-13,4,8
-8,4,7
-1,8,6
8,4,8
12,3,8
20,5,6
26,3,6
30,0,4
28,-1,-1
27,-3,3
24,-2,4
24,-3,4
20,-5,5
13,-6,4
11,-5,3
5,-5,5
3,-5,2
6,-4,7
2,-4,5
2,-1,5
4,-7,7
2,-3,3
5,-1,1
4,-4,2
5,-3,2
4,-5,0
4,-7,2
6,-7,1
4,-7,2
3,-7,0
4,-9,-1
6,-9,-1
4,-8,-1
3,-11,-2
1,-10,-3
2,-7,-2
1,-6,-4
1,-4,-3
-2,-5,-3
-3,-4,-2
-1,-4,-1
-4,-4,-4
-6,1,-1
-4,-1,0
-4,-2,-4
0,-3,-3
0,-1,-1
0,-3,-3
1,-3,-5
2,-2,0
1,-5,2
0,-3,-1
0,-2,-1
-1,-3,2
-4,0,1
0,-1,1
-5,2,0
0,3,3
2,4,2
5,8,-1
6,8,-1
10,9,-1
14,7,-1
11,8,-2
15,5,-4
17,2,2
13,2,3
14,-2,3
9,-2,5
5,-3,1
4,-4,5
4,-3,2
3,-3,4
3,-3,1
6,0,1
5,-1,6
7,1,3
6,1,0
10,0,2
8,-2,1
10,-2,6
10,-3,2
10,0,2
11,0,2
13,-3,0
11,-2,1
15,-3,0
12,-1,0
13,-1,0
13,-3,0
12,0,-1
8,0,-2
9,-5,0
7,-3,1
4,0,-4
3,0,-3
1,0,-5
-2,1,-4
-2,1,-4
-4,2,-1
-5,2,-3
-4,2,-3
-7,2,-2
-7,2,-5
-5,5,-1
-5,2,-2
-8,3,0
-3,3,-1
-3,4,-1
-4,3,-2
-4,2,0
-3,0,-2
-2,4,0
-3,2,0
-2,2,0
0,5,-2
0,3,0
-3,4,-1
-1,3,-2
0,5,1
1,2,0
5,4,0
0,5,1
0,3,1
6,0,2
4,6,4
5,2,3
5,4,0
7,4,0
7,6,-1
9,4,-1
9,4,2
9,4,2
9,5,0
9,2,-1
8,6,2
6,5,1
8,4,2
6,3,0
8,5,2
3,3,0
3,4,0
5,3,3
4,2,0
4,0,0
3,5,-1
5,4,1
3,5,-3
5,3,2
5,1,0
7,2,3
7,0,4
8,2,2
7,1,2
8,2,1
7,0,1
6,2,1
6,2,3
7,1,0
3,5,3
6,0,3
6,4,1
8,4,4
5,4,1
5,4,2
2,6,4
0,3,2
1,5,4
5,5,2
3,5,4
2,5,3
3,1,1
1,0,3
5,2,5
5,2,2
5,1,6
5,4,4
5,0,5
5,2,3
5,1,4
5,3,3
5,2,4
9,6,4
9,3,2
6,2,4
11,2,3
12,1,6
10,2,5
11,5,3
10,3,4
8,2,3
9,1,7
9,1,3
8,3,4
7,1,4
7,0,5
5,-1,6
5,0,3
6,-3,5
5,-3,6
6,-5,6
7,-3,4
6,-1,3
12,0,4
10,0,5
9,1,0
10,2,3
12,8,0
10,7,1
8,8,-1
5,7,0
3,8,-1
1,9,-1
-4,8,3
-9,4,2
-12,5,7
-16,7,9
-13,5,13
-11,5,14
-5,5,13
3,7,16
12,8,12
19,5,10
29,3,8
35,1,7
36,2,9
41,0,8
33,-3,8
31,-3,7
26,-6,6
22,-8,9
17,-3,7
9,0,8
6,-2,9
2,0,7
0,1,6
-1,4,6
0,5,8
0,7,7
0,4,6
0,2,6
2,3,5
2,0,3
4,0,2
4,-2,2
3,-5,0
4,-6,0
7,-10,0
5,-10,0
5,-11,-1
6,-11,-1
5,-10,-2
4,-11,0
4,-8,-1
0,-7,-2
-2,-5,-1
-2,-3,-1
-7,-2,-1
-7,-2,-3
-6,4,-3
-9,0,0
-9,5,0
-4,2,0
-8,4,-2
-1,4,0
0,1,-1
0,3,0
1,1,2
1,2,1
0,0,1
0,2,2
-3,2,4
-2,1,4
-1,2,6
0,0,6
5,6,10
5,8,4
9,8,6
16,8,6
18,8,2
17,7,2
17,6,5
19,1,6
16,3,5
12,1,5
9,0,7
7,-5,8
0,-3,11
3,-1,6
-1,0,4
-1,0,8
0,0,4
-3,-1,5
1,2,5
5,3,7
3,5,5
7,3,4
10,3,7
10,2,5
16,-3,5
14,-1,6
16,-2,4
19,-2,2
16,-2,2
13,-4,3
17,-5,4
14,-4,3
13,-5,3
12,0,1
11,-2,-1
9,-2,0
7,1,0
9,0,-3
9,2,-3
7,3,-1
5,3,-2
1,4,-4
0,4,-3
-4,2,-3
-6,4,-4
-8,4,0
-10,5,0
-10,7,-3
-10,5,1
-12,4,2
-10,2,-1
-11,1,1
-8,1,5
-7,-2,2
-5,-2,5
-6,1,3
-1,-2,8
-1,1,6
0,3,6
1,-1,5
1,2,5
4,4,6
5,3,6
6,3,5
7,2,5
9,4,6
13,2,10
11,2,7
10,2,7
12,1,6
14,0,4
13,1,7
16,1,4
16,0,6
14,1,4
15,-2,3
13,0,4
14,0,1
12,0,4
10,0,1
9,1,2
6,2,2
5,2,1
6,1,0
5,2,2
5,2,3
0,3,3
2,2,2
-2,4,1
0,4,1
-1,3,-1
0,4,1
-1,3,0
3,6,-2
0,4,1
-2,3,-1
0,2,1
2,2,1
1,4,4
1,2,2
4,4,2
2,5,3
1,3,0
4,4,-3
2,2,5
6,3,3
5,4,-1
6,3,3
5,4,1
6,4,2
4,4,0
5,4,0
2,6,3
2,3,1
1,3,2
3,1,3
4,-1,3
2,0,1
4,0,5
6,-1,1
5,-1,1
6,1,1
4,4,2
4,3,1
6,3,0
7,3,0
6,4,0
9,6,-1
7,6,-1
10,4,-4
5,6,-4
2,9,-5
0,7,-6
-6,6,-1
-13,5,0
-13,3,4
-22,5,6
-19,7,6
-19,1,10
-15,3,8
-5,5,9
4,5,4
15,7,4
21,5,2
27,2,-1
31,5,-1
29,2,1
26,2,0
20,1,2
18,2,4
10,0,5
0,-1,4
-5,1,6
-9,3,4
-10,4,4
-7,6,7
-7,7,5
-3,12,5
-2,11,3
3,7,3
9,4,5
11,8,2
10,2,3
11,0,0
11,-1,0
8,-5,-2
9,-7,0
9,-8,-2
8,-6,-2
6,-7,-2
4,-7,-1
4,-8,-1
3,-6,0
1,-4,-3
4,-2,-1
1,-1,1
0,3,0
2,0,0
0,3,-1
-2,1,-1
0,2,0
0,3,0
0,4,1
2,2,-1
3,4,0
2,3,1
2,5,0
0,1,0
0,1,3
0,1,3
0,0,5
0,0,5
0,-1,4
2,1,7
5,0,5
7,3,1
6,8,2
11,6,1
17,1,4
13,6,2
15,4,4
17,5,4
12,3,4
9,2,4
9,0,2
4,-1,2
3,0,4
2,0,5
1,-2,3
2,1,2
0,0,4
0,4,0
4,0,0
4,1,3
7,0,3
9,0,3
6,1,0
10,-1,2
10,0,0
9,0,1
8,-1,-2
8,0,0
7,-1,0
7,0,-1
9,0,-1
9,0,1
7,0,0
10,-5,1
10,0,-3
8,1,-2
7,0,-2
8,2,0
6,2,-5
7,1,-3
6,1,-2
3,2,-4
0,2,-2
-2,2,-1
-4,0,1
-8,2,0
-10,0,0
-10,2,0
-11,2,0
-9,3,2
-8,3,-1
-5,3,2
-3,5,4
0,5,0
1,8,0
5,7,-2
9,6,1
11,6,2
12,4,0
14,1,2
14,1,0
15,3,2
14,0,7
13,0,3
7,0,2
4,3,3
2,3,2
2,0,2
-1,2,0
-1,3,1
-3,6,2
-3,2,2
-6,2,1
-5,3,1
-2,1,0
-8,6,0
-3,4,1
0,2,1
0,2,1
1,3,0
2,2,0
3,4,0
4,3,0
5,2,0
5,3,-1
5,1,-2
6,0,0
7,0,0
8,4,2
10,1,0
8,2,1
9,5,1
8,4,2
7,5,1
8,4,1
6,4,3
5,2,2
3,6,1
3,2,3
3,1,3
2,1,3
0,0,4
1,0,3
2,0,4
1,5,0
5,2,7
2,2,3
7,1,4
7,4,3
5,4,4
8,3,6
5,4,6
10,2,7
10,2,4
11,1,6
11,1,1
13,0,3
14,0,1
15,0,1
14,2,2
18,1,2
14,5,2
17,6,1
16,8,-3
15,4,-1
14,8,-2
10,9,-3
6,8,-6
2,9,-4
0,9,-5
-6,11,-4
-11,8,0
-15,8,0
-19,11,-1
-19,7,1
-19,8,3
-20,8,1
-10,9,3
-3,6,4
7,9,0
14,6,-2
20,4,-3
24,3,-5
26,2,-4
22,1,-6
20,-2,-7
14,-3,-6
7,-4,-3
3,-4,-3
-6,-4,-4
-5,-3,-3
-12,-2,0
-13,-4,-1
-15,0,-2
-16,4,0
-13,4,-1
-11,2,-1
-12,2,-2
-9,5,-2
-8,4,-1
-6,3,-4
-4,0,-4
-3,2,-7
0,0,-3
0,0,-8
2,1,-6
1,-2,-6
5,-2,-8
3,-5,-7
7,-4,-3
6,-4,-3
6,-6,-4
5,-6,-1
6,-3,-3
2,-3,3
2,-3,3
1,-3,2
0,-3,3
3,-3,5
0,-2,4
0,-1,2
0,-2,1
1,0,1
7,-3,-1
4,1,0
5,0,2
5,0,4
4,0,5
4,0,3
4,-1,7
2,-1,4
-1,2,4
-1,2,8
1,4,7
4,5,8
9,5,4
14,4,7
17,5,2
16,4,1
20,3,3
20,2,3
16,-2,0
16,-2,-1
12,-4,0
10,-6,-2
6,-9,-1
3,-10,-2
0,-10,-3
-3,-11,-3
-6,-11,-4
-9,-9,-3
-11,-9,-4
-12,-10,-3
-16,-8,-7
-17,-9,-5
-17,-6,-5
-17,-9,-1
-15,-11,-1
-17,-10,-2
-17,-10,-1
-14,-8,2
-12,-10,0
-12,-8,3
-6,-8,3
-3,-7,6
0,-7,9
4,-8,8
5,-5,11
9,-3,8
12,-1,7
14,0,5
14,0,8
18,2,5
18,1,10
17,0,10
18,0,7
20,-1,9
18,0,10
22,-2,13
21,1,12
17,-1,13
21,-3,13
19,-7,12
19,-7,14
17,-4,17
19,-4,14
18,-5,13
20,-6,13
21,-7,13
20,-2,10
20,-4,7
19,-5,6
18,-5,4
19,-9,6
15,-12,-1
14,-7,-2
11,-10,-2
7,-13,-2
6,-8,-6
2,-10,-4
-2,-8,-7
-6,-7,-5
-7,-7,-6
-10,-3,-7
-12,-4,-4
-18,-2,-9
-18,-1,-8
-20,-4,-10
-20,-7,-9
-22,-9,-7
-22,-9,-5
-21,-8,-5
-22,-6,-7
-20,-9,-5
-16,-6,-6
-14,-4,-3
-10,-1,-6
-5,-2,-2
-4,-1,-3
0,2,1
2,2,0
4,4,2
6,5,1
10,7,2
13,6,3
15,7,4
16,7,3
15,6,5
17,7,5
19,7,6
20,1,6
20,2,5
21,2,8
21,2,6
22,2,8
19,1,10
20,2,10
21,0,8
19,3,11
15,5,6
16,2,8
13,2,7
15,2,9
15,1,6
12,6,2
10,2,1
8,0,2
9,2,-1
8,4,-2
5,2,-3
4,2,-1
6,1,-3
0,1,-1
3,1,-2
1,2,-2
1,0,-4
-2,0,-4
-2,0,-4
-1,0,-4
-2,0,-2
-1,-1,-4
-1,-2,0
-4,-1,0
-6,1,0
0,2,2
-3,1,0
-2,2,1
-2,1,0
-1,0,0
0,-1,2
0,0,0
2,-2,0
4,-3,0
5,-1,1
6,-1,0
6,-2,2
8,-3,3
9,-2,3
8,-2,3
9,0,5
12,3,4
11,0,4
13,5,0
11,4,3
8,5,2
10,6,1
3,6,1
6,4,1
2,4,0
1,4,7
0,3,5
-4,7,8
-7,7,10
-3,10,7
-1,6,8
5,5,7
12,9,6
17,6,6
24,6,7
28,5,4
28,3,4
31,1,10
26,2,4
25,-3,6
22,-1,3
18,1,5
15,4,2
13,0,0
11,0,0
9,4,-1
12,7,-5
10,8,-7
8,9,-6
11,9,-7
10,6,-7
9,7,-11
7,8,-12
5,6,-9
7,3,-9
7,1,-9
5,-2,-8
4,-2,-7
3,-2,-5
2,-3,-6
2,-5,-6
0,-6,-7
2,-4,-5
-2,-2,-10
-2,-5,-7
-2,-5,-9
-6,-3,-10
-7,-2,-7
-9,0,-8
-9,-1,-10
-11,2,-7
-11,3,-8
-11,3,-5
-9,4,-5
-7,1,-6
-8,4,-8
-3,1,-4
-2,1,0
4,0,-4
2,1,-2
0,1,-2
3,0,-2
1,0,0
-1,2,0
1,0,1
3,2,3
3,6,5
1,6,0
8,7,3
11,8,0
15,10,2
17,11,2
18,9,-1
22,11,1
21,10,1
17,7,0
17,6,1
13,9,1
10,2,5
6,5,4
4,3,4
3,4,4
0,4,3
0,2,4
0,4,1
0,3,1
5,7,3
3,9,1
7,7,3
7,5,4
12,4,1
14,5,4
12,7,1
14,3,0
16,6,3
17,5,3
19,2,1
18,2,1
18,3,2
17,-1,1
16,1,0
18,1,1
14,2,0
14,0,-2
9,5,-4
9,4,0
7,5,-5
6,4,-7
5,4,-8
0,7,-5
-3,4,-6
-3,4,-4
-2,2,-2
-8,4,-4
-10,5,0
-8,2,0
-6,5,1
-8,-1,4
-7,3,3
-6,1,1
-4,1,2
-4,1,3
-5,2,2
-2,1,1
-1,3,1
-1,4,2
1,0,2
-1,0,0
-1,3,0
1,2,1
1,2,1
0,1,2
1,3,1
1,4,2
0,3,2
5,1,1
1,0,1
6,-1,2
6,0,3
5,-1,4
6,-1,3
3,-2,0
6,-3,2
7,0,5
3,-1,1
5,-1,2
6,0,4
5,0,3
4,0,3
2,0,0
2,0,4
0,3,0
2,2,3
4,-1,1
3,2,2
1,1,0
2,0,1
0,-1,1
0,0,-1
1,0,2
1,1,-1
0,0,-2
-1,-2,3
0,1,0
0,2,3
-1,1,0
0,0,0
1,0,1
2,0,5
0,2,2
2,0,2
4,-2,1
1,0,3
3,0,2
3,0,0
4,0,3
3,2,0
4,4,2
4,2,3
5,5,0
7,1,2
7,4,3
6,5,0
5,6,3
7,3,2
7,4,-1
7,3,3
7,1,0
7,3,0
6,1,1
8,1,3
5,0,1
5,-1,2
0,0,2
2,-1,0
2,-1,0
2,-2,1
5,-4,-1
6,-1,5
7,-1,-2
7,0,1
4,2,-1
8,4,0
7,4,-3
7,3,0
8,5,-3
7,5,-4
2,5,-4
-2,7,-4
-3,7,-5
-7,7,-2
-11,3,-2
-18,6,1
-20,5,3
-22,8,4
-23,5,9
-16,8,10
-7,8,7
-1,10,6
10,8,4
19,8,5
25,8,2
27,8,0
33,2,1
30,2,4
27,1,6
20,-1,4
15,0,4
7,0,4
1,1,6
0,2,6
-2,4,8
-4,6,5
-3,8,4
-2,11,4
0,11,3
2,12,4
3,10,0
6,10,3
8,10,3
10,10,0
13,3,4
12,1,1
12,0,1
12,-1,0
12,-8,-1
12,-8,3
10,-7,1
8,-8,0
9,-8,3
6,-7,-1
3,-5,0
2,-5,0
0,-3,-1
0,0,-1
-2,1,0
-4,5,-2
-6,6,0
-6,10,-2
-4,12,-4
-5,13,-2
-4,16,-7
-3,13,-1
-4,14,-2
-3,13,0
-4,13,0
-6,11,-1
-5,11,-2
-6,12,2
-4,8,5
-6,9,3
-2,9,3
0,11,1
2,11,3
6,11,1
7,11,4
10,10,2
10,8,4
10,6,5
11,6,5
8,3,6
9,2,8
6,5,6
5,4,6
5,6,7
4,3,9
5,5,7
3,5,8
1,5,6
7,5,6
7,5,8
12,5,9
16,5,7
17,0,9
17,2,5
18,0,6
20,-2,8
17,-3,6
19,-3,5
16,-5,6
15,-3,0
13,-3,4
11,-5,2
11,-2,2
10,-2,0
8,-3,1
4,0,0
5,-2,1
6,0,-2
2,1,-1
4,3,-3
4,3,-3
0,2,-2
0,1,-3
-5,3,-3
-4,2,0
-7,1,-3
-5,1,-1
-11,1,-1
-8,-1,0
-11,2,0
-5,1,-1
-7,3,0
-5,2,2
-4,2,-1
-1,1,3
-1,0,1
1,0,3
2,2,6
2,0,1
3,4,4
4,0,2
7,2,4
6,5,5
8,1,7
10,0,3
11,0,7
10,1,8
10,0,7
9,1,6
12,-4,4
14,0,8
14,1,5
11,3,5
11,1,7
12,-2,3
10,1,1
10,2,1
9,2,3
8,0,1
5,2,2
6,0,0
3,-1,-1
2,0,0
-2,1,0
-3,1,2
0,-1,1
0,-1,1
-2,-1,0
-2,2,0
-3,0,1
-2,-2,1
-4,1,1
-3,0,3
-2,1,3
0,3,0
1,4,0
1,3,2
2,2,1
2,6,0
3,4,2
5,7,1
4,3,3
7,1,3
9,4,4
7,1,1
7,2,3
6,0,3
5,0,4
7,-1,4
4,-4,4
4,-2,4
3,-3,5
3,-2,2
4,-3,9
7,-4,6
6,0,5
9,1,1
9,2,4
12,2,0
16,4,0
14,8,-3
15,8,-8
13,7,-8
8,7,-7
2,10,-5
1,5,-3
-6,4,-2
-8,3,2
-14,4,6
-14,2,8
-16,4,10
-11,1,9
-5,1,9
0,1,7
14,2,2
21,3,1
29,4,-2
33,3,-1
32,2,-2
31,0,-1
26,-1,-1
21,-5,-2
14,-3,0
6,-1,0
0,-2,6
-7,2,3
-7,2,7
-10,4,7
-9,6,5
-7,7,5
-6,6,4
0,4,5
3,0,3
7,4,3
8,2,5
8,0,1
10,-5,0
11,-6,2
6,-9,1
8,-10,1
7,-8,-2
4,-10,0
3,-9,0
3,-8,0
3,-7,-1
4,-5,-2
2,-5,0
2,-3,0
2,-2,4
2,0,0
1,-4,0
0,-2,1
-1,0,0
-1,0,0
-2,1,0
2,0,0
2,0,2
0,-1,0
4,0,0
2,3,0
2,0,2
2,3,2
0,0,4
0,1,2
0,2,1
2,1,4
2,0,5
5,2,0
5,2,3
11,1,5
15,8,0
17,5,2
19,9,2
14,8,1
13,6,3
11,3,6
7,0,3
6,-1,2
6,-4,4
-3,-3,2
0,-3,6
-4,0,3
-3,1,3
-1,-1,3
0,2,0
3,0,2
5,1,1
5,2,-1
10,1,1
10,0,0
11,-1,0
9,-1,3
9,0,3
11,0,0
8,-4,2
9,-3,1
11,-7,5
9,-6,1
10,-6,0
8,-3,0
6,0,-3
7,-2,0
7,0,-1
7,0,1
5,-1,-2
5,1,0
4,1,-2
2,5,-4
0,2,-4
-1,1,-1
-4,4,-2
-6,3,-4
-8,6,-2
-8,2,-2
-7,2,0
-11,2,-5
-8,1,-1
-8,0,1
-7,2,0
-5,0,-1
-6,3,-1
-4,3,0
-1,2,-1
-2,4,2
-3,3,2
-1,4,1
0,3,1
0,2,1
0,0,0
0,1,5
5,4,3
4,3,3
3,4,1
6,4,2
3,5,1
6,4,0
5,4,2
7,3,1
7,1,0
8,0,1
8,2,0
10,0,0
11,-1,0
6,0,0
7,0,0
7,1,1
5,0,0
3,-1,0
3,0,0
2,0,-2
-1,0,-2
-2,2,-1
-3,2,-1
-2,4,0
-2,4,1
