77206
77198
77209
77220
77225
77244
77257
77278
77288
77286
77314
77335
77343
77349
77357
77388
77373
77413
77432
77443
77458
77462
77487
77491
77516
77518
77466
77329
77180
77111
77013
76999
76973
76966
76963
76970
76985
76985
77030
77041
77066
77089
77127
77108
77128
77143
77151
77171
77198
77217
77235
77241
77273
77303
77321
77326
77365
77356
77375
77394
77430
77424
77440
77458
77447
77408
77280
77143
77059
76982
76964
76952
76964
76944
77001
77024
77043
77072
77127
77128
77142
77126
77148
77150
77153
77171
77177
77193
77231
77262
77259
77279
77311
77326
77336
77370
77347
77380
77388
77410
77347
77252
77132
77028
76971
76906
76901
76924
76935
76918
76936
76977
77006
77032
77050
77056
77044
77031
77040
77052
77062
77066
77086
77094
77108
77141
77144
77159
77169
77178
77192
77214
77225
77225
77160
77055
76920
76834
76803
76778
76766
76790
76794
76790
76807
76814
76837
76852
76848
76845
76828
76805
76799
76800
76806
76829
76850
76876
76905
76905
76916
76944
76950
76997
77027
77041
77064
77026
76914
76759
76674
76604
76556
76558
76548
76549
76545
76541
76553
76592
76619
76630
76673
76631
76648
76624
76644
76655
76676
76680
76707
76711
76737
76762
76796
76784
76832
76836
76879
76893
76894
76936
76962
77001
77020
77038
77037
77081
77104
77113
77149
77182
77188
77126
76998
76839
76712
76650
76617
76591
76591
76576
76592
76606
76617
76630
76639
76650
76688
76684
76685
76715
76714
76711
76705
76731
76764
76773
76781
76806
76816
76847
76866
76878
76897
76922
76908
76939
76969
76971
77012
77017
77056
77076
77085
77098
77128
77149
77138
77036
76881
76717
76626
76588
76573
76546
76542
76549
76552
76532
76526
76530
76542
76544
76558
76498
76495
76519
76544
76573
76630
76630
76653
76675
76707
76737
76744
76757
76777
76803
76835
76867
76884
76909
76927
76961
76963
76953
76982
76989
77029
77063
77062
77093
77042
76934
76795
76709
76700
76671
76706
76709
76765
76794
76808
76867
76890
76888
76926
76916
76908
76907
76896
76922
76969
76995
77017
77032
77104
77114
77131
77149
77160
77168
77150
77160
77154
77163
77185
77166
77178
77192
77207
77218
77218
77182
77049
76920
76834
76768
76777
76790
76823
76872
76892
76925
76932
76982
77009
77022
77000
76966
76940
76923
76900
76915
76906
76928
76939
76936
76925
76928
76952
76937
76936
76942
76935
76955
76969
76983
76951
76944
76885
76787
76668
76558
76508
76484
76466
76510
76511
76540
76546
76557
76595
76616
76645
76644
76634
76650
76649
76663
76677
76709
76712
76730
76739
76746
76764
76779
76785
76792
76797
76807
76812
76814
76837
76841
76781
76659
76567
76485
76449
76406
76402
76389
76415
76428
76428
76435
76474
76490
76533
76544
76550
76558
76559
76577
76568
76594
76612
76616
76645
76661
76684
76708
76730
76729
76753
76760
76776
76808
76802
76829
76832
76857
76874
76859
76826
76696
76612
76537
76506
76495
76484
76496
76512
76510
76515
76531
76552
76582
76601
76601
76614
76611
76630
76624
76655
76662
76657
76699
76723
76728
76744
76761
76777
76803
76815
76816
76831
76842
76870
76867
76892
76910
76924
76930
76973
76982
76980
77007
77019
77036
76999
76942
76792
76697
76627
76595
53063
76583
76579
76587
76598
76608
76605
76634
76665
76687
76714
76697
76720
76723
76735
76746
76767
76763
76787
76824
76835
76828
76885
76894
76899
76939
76926
76943
76943
76975
76998
77023
77036
77062
77064
77078
77119
77107
77117
77155
77180
77185
77146
77044
76941
76867
76831
76804
76790
76774
76790
76816
76824
76838
76850
76875
76894
76916
76941
76929
76927
76943
76943
76954
76974
76990
77004
77041
77049
77072
77082
77088
77119
77144
77147
77156
77159
77177
77209
77223
77213
77248
77242
77258
77271
77273
77291
77295
77259
77169
77066
76994
76928
76914
76910
76920
76920
76920
76937
76944
76965
76969
77020
77021
77005
76977
76988
77005
77020
77031
77048
77035
77061
77062
77087
77097
77111
77128
77138
77130
77163
77175
77186
77191
77201
77214
77223
77250
77237
77213
77116
77007
76936
76882
76846
76850
76859
76861
76864
76863
76892
76906
76931
76960
76963
76961
76967
76968
76992
76986
77000
77020
77042
77028
77030
77040
77041
77036
77075
77057
77073
77063
77079
77088
77091
77094
77061
76989
76887
76794
76737
76726
76730
76719
76718
76710
76698
76712
76710
76711
76690
76723
76699
76689
76686
76687
76702
76708
76728
76730
76743
76771
76760
76774
76774
76784
76819
76857
76894
76916
76937
76944
76945
76904
76853
76712
76589
76497
76447
76442
76415
76399
76405
76397
76351
76373
76362
76376
76402
76413
76406
76402
76409
76393
76392
76399
76405
76410
76434
76443
76481
76495
76502
76534
76540
76527
76534
76525
76512
76512
76491
76476
76481
76497
76509
76556
76563
76550
76499
76376
76274
76250
76234
76239
76271
76289
76325
76346
76368
76378
76431
76456
76476
76488
76512
76528
76529
76551
76586
76611
76622
76641
76660
76686
76698
76741
76751
76757
76782
76804
76838
76848
76879
76905
76914
76952
76959
76973
76986
77014
77039
77061
77069
77060
76989
76873
76806
76734
76717
76704
76744
76777
76821
76810
76848
76859
76842
76850
76856
76832
76814
76824
76810
76820
76836
76819
76812
76818
76815
76825
76832
76847
76845
76850
76858
76861
76851
76846
76859
76852
76856
76863
76880
76893
76887
76849
76753
76658
76568
76518
76522
76491
76502
76507
76488
76499
76500
76527
76538
76573
76556
76555
76545
76538
76545
76558
76553
76581
76589
76597
76584
76594
76608
76587
76636
76639
76644
76662
76659
76692
76689
76707
76690
76686
76588
76466
76409
76393
76383
76390
76369
76397
76387
76377
76404
76413
76445
76471
76474
76467
76485
76482
76477
76500
76522
76557
76555
76564
76567
76599
76601
76626
76654
76655
76669
76670
76682
76712
76712
76727
76737
76741
76770
76768
76789
76747
76664
76569
76479
76459
76421
76433
76412
76403
76385
76384
76369
76381
76412
76426
76453
76440
76457
76464
76464
76473
76483
76480
76521
76507
76526
76560
76570
76585
76587
76617
76622
76628
76647
76628
76644
76663
76644
76652
76664
76685
76685
76676
76707
76700
76729
76754
76755
76747
76744
76643
76553
76475
76452
76431
76411
76423
76425
76447
76410
76417
76430
76444
76459
76455
76455
76469
76461
76466
76470
76483
76489
76495
76520
76531
76554
76554
76576
76574
76568
76583
76593
76595
76600
76601
76624
76641
76628
76664
76667
76667
76685
76680
76704
76679
76629
76527
76462
76426
76394
76398
76417
76419
76426
76424
76440
76456
76474
76459
76490
76494
76490
76490
76495
76496
76511
76521
76524
76543
76554
76568
76590
76598
76607
76617
76639
76641
76663
76675
76679
76675
76701
76714
76718
76685
76576
76490
76417
76418
76404
76401
76432
76424
76417
76453
76459
76490
76506
76523
76516
76551
76552
76543
76561
76563
76582
76604
76600
76594
76626
76623
76648
76664
76669
76698
76691
76716
76710
76738
76730
76727
76715
76624
76527
76469
76448
76440
76432
76435
76443
76424
76440
76440
76459
76485
76505
76529
76529
76530
76530
76511
76535
76540
76555
76566
76581
76601
76610
76633
76624
76645
76662
76666
76677
76687
76714
76704
76732
76744
76741
76750
76719
76630
76547
76465
76441
76433
76428
76445
76421
76430
76430
76453
76472
76491
76491
76504
76510
76505
76517
76521
76531
76540
76543
76554
76561
76579
76582
76596
76620
76623
76628
76649
76662
76665
76698
76712
76727
76734
76774
76774
76779
76807
76804
76815
76827
76861
76863
76861
76831
76732
76646
76567
76531
76513
76514
76489
76511
76499
76519
76496
76521
76530
76565
76567
76582
76579
76587
76604
76589
76612
76606
76611
76614
76631
76640
76645
76648
76674
76679
76689
76696
76713
76703
76730
76740
76744
76769
76799
76789
76787
76820
76828
76834
76862
76871
76829
76742
76640
76577
76555
76532
76511
76508
76525
76514
76501
76535
76539
76544
76555
76573
76556
76554
76556
76549
76563
76563
76588
76596
76594
76601
76616
76603
76626
76617
76640
76644
76671
76664
76687
76689
76709
76715
76725
76735
76749
76754
76761
76742
76687
76592
76509
76446
76448
76427
76447
76433
76453
76447
76455
76464
76498
76501
76493
76520
76512
76507
76493
76513
76525
76535
76542
76562
76571
76592
76587
76593
76614
76623
76630
76643
76650
76670
76659
76668
76688
76685
76659
76585
76503
76426
76387
76374
76362
76362
76342
76358
76343
76346
76338
76380
76412
76405
76412
76404
76400
76409
76406
76426
76431
76455
76453
76455
76466
76480
76493
76503
76520
76524
76517
76527
76567
76583
76589
76592
76602
76623
76626
76654
76651
76655
76659
76628
76514
76410
76356
76321
76299
76276
76261
76251
76261
76259
76256
76264
76298
76332
76312
76341
76352
76344
76316
76315
76318
76294
76321
76314
76305
76327
76354
76365
76380
76402
76427
76434
76453
76463
76504
76490
76507
76535
76547
76548
76556
76570
76589
76601
76625
76640
76636
76618
76621
76620
76556
76478
76365
76273
76257
76263
76249
76250
76235
76230
76225
76236
76248
76288
76302
76300
76307
76306
76334
76303
76329
76335
76356
76367
76374
76381
76395
76417
76394
76423
76426
76438
76459
76467
76474
76507
76512
76529
76535
76549
76559
76572
76582
76614
76609
76616
76601
76528
76427
76356
76338
76311
76310
76318
76337
76332
76345
76362
76372
76428
76433
76449
76456
76451
76461
76464
76474
76486
76498
76509
76513
76509
76505
76539
76553
76568
76579
76584
76616
76627
76645
76663
76660
76676
76700
76698
76704
76676
76577
76492
76434
76400
76412
76389
76393
76409
76423
76419
76430
76441
76482
76489
76506
76516
76509
76508
76505
76508
76521
76530
76530
76561
76575
76555
76569
76581
76599
76608
76623
76630
76648
76683
76675
76690
76719
76743
76741
76741
76764
76769
76781
76804
76799
76712
76610
76535
76467
76455
76447
76417
76419
76422
76404
76421
76428
76429
76458
76473
76483
76476
76476
76457
76464
76479
76471
76488
76469
76500
76516
76536
76544
76573
76592
76610
76617
76628
76675
76677
76694
76732
76741
76740
76741
76762
76763
76776
76783
76797
76798
76819
76805
76824
76827
76839
76829
76794
76687
76595
76540
76509
76504
76497
76488
76476
76499
76489
76510
76505
76530
76546
76565
76568
76569
76571
76581
76575
76585
76566
76585
76601
76608
76615
76620
76640
76643
76647
76681
76682
76691
76703
76725
76729
76750
76760
76785
76779
76808
76810
76828
76836
76847
76786
76692
76629
76572
76555
76541
76562
76559
76569
76574
76577
76597
76584
76624
76645
76631
76641
76630
76618
76632
37772
76635
76660
76663
76670
76678
76703
76708
76721
76727
76757
76754
76775
76774
76813
76796
76810
76837
76836
76855
76810
76726
76643
76590
76556
76523
76519
76524
76530
76489
76506
76513
76504
76529
76557
76558
76550
76559
76526
76549
76555
76579
76590
76595
76604
76619
76636
76631
76659
76632
76686
76691
76707
76705
76711
76717
76729
76739
76759
76750
76760
76755
76763
76743
76747
76755
76773
76783
76773
76754
76673
76573
76490
76424
76393
76382
76364
76345
76356
76369
76369
76341
76380
76375
76380
76382
76393
76380
76364
76331
76293
76302
76284
76228
76185
76138
76040
75956
75748
74692
74880
74920
74900
74822
74721
74737
74828
74446
74065
73620
73293
72828
72719
72697
72653
72572
72583
72719
73187
72880
71740
72968
72990
72789
74124
74789
74464
74903
75350
75263
75540
75861
76161
76496
75211
72523
71865
74562
75716
74508
73430
72721
72961
73303
73417
73417
73410
73362
73318
73265
73148
72977
72890
72866
72858
72831
72812
72850
72870
72871
72851
72813
72743
72719
72692
72649
72642
72648
72691
72762
72782
72807
72843
72845
72854
72854
72855
72021
71267
71607
72195
72609
72788
72877
72978
73053
73158
73222
73233
73260
73301
73328
73366
73428
73467
73499
73529
73511
73452
73411
73400
73391
73382
73395
73395
73395
73400
73409
73432
73479
73498
73513
73552
73562
73537
73570
73588
73594
73620
73646
73669
73700
73733
73765
73789
73808
73858
73869
73905
73931
73975
73999
74038
74053
74091
74115
74166
74140
74078
74008
73968
73962
73962
73972
73978
73989
73987
74016
74021
74042
74077
74102
74098
74143
74143
74146
74185
74195
74193
74227
74243
74281
74300
74313
74320
74362
74372
74408
74415
74430
74464
74500
74517
74559
74578
74576
74616
74634
74649
74662
74700
74715
74739
74746
74785
74785
74808
74827
74839
74854
74875
74888
74881
74830
74751
74676
74631
74606
74616
74619
74621
74616
74640
74640
74656
74677
74681
74690
74686
74681
74668
74664
74646
74667
74677
74682
74693
74686
74686
74709
74699
74709
74746
74730
74737
74761
74788
74792
74807
74834
74834
74840
74844
74850
74864
74871
74893
74911
74926
74919
74836
74723
74633
74589
74569
74535
74544
74535
74556
74560
74577
74594
74640
74659
74666
74663
74615
74616
74603
74588
74573
74582
74562
74595
74586
74587
74582
74576
74595
74610
74604
74606
74641
74630
74656
74653
74666
74664
74680
74694
74698
74690
74706
74711
74734
74715
74749
74736
74753
74720
74693
74653
74540
74466
74418
74382
74359
74315
74307
74314
74295
74292
74297
74308
74329
74309
74320
74302
74320
74314
74289
74295
74290
74313
74308
74330
74344
74363
74361
74361
74359
74374
74361
74385
74393
74414
74420
74428
74433
74450
74463
74461
74489
74497
74494
74506
74523
74519
74541
74567
74562
74585
74596
74595
74630
74623
74602
74556
74442
74356
74281
74251
74233
74212
74203
74227
74212
74205
74215
74221
74241
74237
74280
74256
74283
74263
74262
74276
74269
74271
74265
74278
74264
74304
74299
74319
74322
74331
74366
74366
74381
74394
74408
74407
74442
74433
74448
74454
74466
74503
74514
74507
74517
74505
74544
74543
74560
74563
74562
74567
74533
74443
74372
74308
74282
74271
74261
74251
74261
74281
74264
74268
74273
74313
74336
74316
74310
74307
74300
74302
74321
74313
74335
74343
74358
74354
74366
74386
74382
74403
74410
74421
74428
74451
74452
74456
74472
74470
74481
74485
74484
74501
74518
74529
74528
74467
74377
74277
74268
74235
74225
74220
74206
74213
74209
74219
74216
74219
74269
74290
74261
74281
74284
74286
74276
74285
74272
74292
74292
74290
74304
74307
74339
74336
74342
74354
74367
74372
74387
74395
74397
74425
74429
74440
74436
74424
74468
74461
74494
74477
74492
74457
74376
74273
74192
74140
74103
74091
74074
74101
74084
74079
74070
74065
74068
74097
74110
74101
74118
74110
74124
74134
74124
74140
74126
74137
74147
74150
74158
74162
74159
74141
74158
74171
74174
74182
74189
74192
74212
74222
74254
74275
74289
74297
74332
74333
74333
74352
74373
74385
74402
74409
74430
74442
74444
74432
74358
74277
74176
74126
74095
74084
74069
74047
74067
74063
74047
74019
74055
74055
74080
74090
74092
74087
74095
74074
74083
74085
74092
74097
74086
74100
74110
74111
74108
74122
74131
74152
74179
74171
74170
74192
74190
74180
74209
74218
74231
74245
74245
74251
74257
74253
74286
74281
74280
74302
74299
74309
74269
74195
74094
73997
73971
73942
73935
73940
73937
73950
73937
73939
73944
73962
73989
73996
73993
73979
73972
73964
73965
73958
73977
73964
73976
73980
73988
73976
73992
74013
74023
74036
74037
74058
74066
74080
74093
74107
74101
74115
74132
74119
74132
74151
74146
74138
74068
73978
73880
73850
73818
73806
73813
73798
73786
73780
73795
73793
73812
73838
73829
73827
73797
73788
73792
73782
73811
73807
73844
73830
73838
73854
73865
73886
73889
73904
73911
73924
73947
73943
73963
73979
73999
73996
74025
74035
74052
74051
74002
73933
73844
73775
73747
73735
73725
73731
73737
73713
73728
73727
73740
73761
73781
73794
73795
73793
73786
73803
73827
73819
73820
73837
73851
73874
73867
73875
73892
73912
73918
73931
73951
73951
73991
74014
74021
74028
74050
74063
74061
74067
74061
74093
74089
74101
74105
74115
74119
74132
74147
74167
74170
74187
74187
74191
74207
74213
74242
74234
74211
74153
74033
73951
73902
73871
73854
73866
73850
73836
73845
73852
73854
73847
73888
73896
73908
73896
73887
73901
73905
73911
73925
73936
73944
73941
73959
73969
73979
73999
74013
74009
74044
74062
74087
74103
74115
74125
74128
74148
74158
74184
74202
74182
74221
74222
74229
74251
74284
74286
74291
74305
74304
74318
74341
74359
74352
74382
74389
74383
74314
74209
74115
74074
74052
74032
74035
74035
74034
74023
74022
74013
74018
74066
74043
74076
74076
74061
74049
74055
74058
74054
74073
74066
74085
74072
74086
74109
74133
74139
74130
74153
74157
74168
74173
74187
74197
74208
74236
74229
74257
74250
74292
74284
74301
74316
74327
74324
74334
74344
74350
74373
74372
74356
74299
74226
74142
74093
74060
74033
74036
74058
74052
74039
74042
74049
74038
74066
74087
74078
74077
74081
74067
74057
74043
74059
74073
74080
74082
74097
74095
74118
74132
74135
74148
74161
74181
74189
74202
74199
74222
74226
74259
74251
74263
74283
74289
74268
74278
74289
74277
74222
74136
74029
73989
73988
73975
73962
73978
73979
73970
73972
73979
73986
73995
74032
74027
74036
74014
74017
73999
74003
74023
74015
74042
74046
74050
74070
74068
74078
74070
74082
74103
74113
74114
74120
74135
74145
74151
74143
74143
74170
74165
74180
74201
74196
74213
74215
74225
74237
74254
74253
74291
74289
74329
74322
74317
74224
74113
73994
73945
73898
73862
73851
73859
73871
73865
73897
73889
73890
73903
73928
73943
73945
73948
73941
73944
73935
73947
73951
73936
73969
73967
74000
74020
74022
74018
74037
74052
74060
74063
74072
74082
74112
74123
74126
74148
74169
74176
74185
74208
74203
74231
74239
74262
74263
74286
74280
74310
74326
74309
74354
74365
74348
74283
74209
74122
74071
74037
74021
74018
74018
74035
74016
74039
74040
74049
74060
74093
74103
74109
74122
74118
74103
74107
74112
74120
74112
74135
74149
74169
74169
74178
74191
74191
74215
74220
74242
74251
74263
74291
74277
74294
74293
74327
74332
74339
74356
74377
74369
74400
74388
74435
74420
74419
74442
74433
74406
74315
74231
74172
74129
74112
74121
74121
74137
74139
74140
74150
74138
74171
74206
74201
74201
74203
74201
74167
74168
74193
74187
74198
74172
74213
74219
74225
74239
74244
74264
74288
74277
74295
74307
74326
74347
74341
74353
74376
74375
74379
74394
74383
74421
74416
74416
74338
74260
74176
74127
74105
74092
74084
74076
74082
74093
74082
74115
74129
74132
74152
74162
74169
74147
74140
74142
74146
74162
74167
74179
74196
74203
74215
74230
74243
74245
74251
74269
74281
74288
74306
74313
74333
74341
74342
74356
74366
74372
74397
74402
74407
74425
74425
74432
74435
74473
74434
74363
74255
74164
74111
74088
74065
74059
74074
74034
74029
74032
74035
74060
74078
74080
74094
74095
74115
74084
74097
74094
74116
74107
74127
74131
74142
74179
74178
74173
74180
74191
74203
74243
74260
74259
74262
74266
74292
74320
74323
74333
74354
74354
74377
74391
74380
74396
74411
74429
74439
74449
74457
74463
74476
74479
74496
74517
74500
74505
74521
74461
74339
74241
74184
74161
74147
74148
74125
74107
74131
74111
74114
74113
74126
74143
74168
74156
74153
74150
74148
74145
74156
74147
74151
74166
74160
74168
74191
74202
74205
74239
74258
74264
74285
74280
74286
74290
74307
74323
74334
74343
74362
74356
74379
74377
74392
74415
74413
74395
74428
74431
74437
74447
74458
74470
74465
74459
74378
74273
74196
74137
74133
74136
74139
74131
74144
74138
74135
74152
74154
74210
74214
74214
74199
74199
74191
74228
74208
74214
74233
74248
74251
74245
74300
74308
74300
74324
74367
74342
74391
74377
74405
74404
74436
74439
74460
74472
74481
74490
74505
74516
74521
74527
74538
74571
74554
74555
74513
74416
74326
74270
74216
74223
74236
74231
74210
74229
74232
74250
74263
74281
74295
74322
74317
74320
74310
74312
74320
74333
74332
74344
74370
74382
74384
74402
74433
74438
74452
74457
74479
74489
74507
74525
74544
74566
74585
74596
74616
74628
74624
74635
74645
74664
74662
74665
74684
74694
74716
74720
74727
74742
74743
74759
74720
74625
74520
74443
74396
74384
74365
74355
74328
74356
74327
74346
74344
74364
74365
74387
74404
74412
74397
74405
74405
74401
74410
74416
74424
74441
74425
74462
74456
74463
74496
74510
74517
74528
74561
74569
74571
74576
74607
74619
74642
74622
74641
74665
74684
74691
74714
74706
74745
74740
74746
74763
74769
74791
74772
74789
74809
74818
74826
74799
74702
74576
74511
74439
74430
74414
74408
74406
74414
74390
74378
74393
74392
74425
74443
74437
74435
74418
74430
74415
74408
74404
74432
74432
74433
74444
74453
74448
74469
74498
74496
74497
74503
74545
74533
74553
74545
74576
74572
74572
74604
74600
74601
74617
74604
74615
74628
74649
74652
74651
74635
74580
74467
74385
74321
74286
74278
74280
74270
74251
74277
74257
74252
74277
74305
74324
74331
74326
74333
74316
74321
74333
74330
74336
74351
74355
74371
74376
74377
74394
74393
74411
74417
74422
74435
74442
74463
74473
74486
74484
74496
74499
74506
74532
74521
74522
74555
74553
74579
74552
74480
74362
74287
74221
74204
74189
74179
74199
74189
74206
74185
74191
74189
74212
74258
74246
74263
74241
74235
74238
74248
74253
74273
74256
74271
74296
74292
74319
74324
74318
74326
74356
74363
74380
74404
74420
74438
74430
74447
74474
74484
74481
74505
74526
74544
74550
74570
74593
74585
74607
74617
74607
74647
74638
74662
74656
74652
74609
74504
74395
74329
74305
74288
74269
74281
74274
74263
74279
74279
74288
74284
74308
74334
74330
74342
74347
74340
74335
74356
74354
74354
74365
74375
74386
74401
74420
74423
74430
74466
74478
74481
74508
74523
74542
74552
74560
74573
74601
74607
74614
74637
74635
74642
74658
74678
74662
74682
74698
74715
74725
74745
74743
74759
74769
74760
74678
74581
74478
74416
74355
74358
74374
74380
74359
74369
74379
74382
74378
74404
74435
74436
74447
74434
74422
74427
74401
74431
74440
74443
74450
74447
74442
74464
74484
74481
74502
74510
74511
74550
74568
74557
74563
74602
74609
74610
74633
74625
74658
74666
74684
74686
74681
74710
74689
74697
74688
74607
74521
74411
74361
74353
74317
74320
74332
74345
74337
74341
74357
74348
74392
74393
74400
74397
74394
74374
74369
74398
74399
74421
74432
74409
74440
74436
74464
74475
74487
74490
74527
74536
74554
74551
74572
74595
74598
74602
74623
74623
74644
74657
74674
74689
74682
74713
74722
74720
74709
74676
74573
74463
74373
74343
74305
74309
74309
74282
74317
74287
74284
74301
74320
74335
74354
74350
74363
74378
74343
74330
74338
74376
74385
74385
74379
74408
74416
74432
74426
74426
74465
74479
74475
74501
74505
74545
74562
74563
74580
74594
74618
74605
74625
74639
74658
74661
74673
74689
74670
74716
74710
74726
74727
74726
74747
74764
74773
74698
74600
74506
74419
74366
74333
74324
74320
74317
74319
74312
74317
74324
74322
74336
74385
74364
74388
74384
74383
74384
74398
74397
74393
74388
74406
74405
74406
74393
74399
74405
74445
74440
74459
74487
74508
74540
74533
74554
74596
74595
74609
74608
74645
74660
74666
74668
74705
74702
74712
74725
74725
74742
74754
74765
74761
74760
74695
74577
74473
74394
74362
74353
74331
74344
74345
74354
74344
74365
74340
74386
74383
74410
74395
74400
74395
74365
74382
74394
74379
74375
74416
74396
74409
74452
74436
74449
74460
74501
74513
74523
74522
74543
74547
74530
74543
74578
74562
74568
74582
74584
74597
74613
74624
74603
74626
74629
74581
74469
74365
74314
74278
74267
74276
74274
74277
74301
74319
74300
74314
74338
74378
74394
74390
74401
74362
74338
74327
74330
74337
74338
74336
74366
74358
74394
74410
74439
74445
74460
74495
74507
74523
74533
74555
74589
74591
74607
74616
74636
74645
74665
74688
74697
74698
74709
74725
74740
74727
74663
74538
74438
74358
74307
