78204
78158
78093
78023
77967
77961
77951
77933
77966
77989
77983
78005
78032
78031
78068
78065
78099
78101
78085
78122
78122
78141
78135
78166
78208
78202
78215
78232
78240
78259
78262
78282
78285
78275
78310
78351
78361
78410
78438
78472
78481
78509
78533
78520
78486
78415
78332
78311
78253
78263
78253
78229
78244
78261
78242
78233
78242
78259
78253
78237
78245
78222
78225
78245
78215
78214
78211
78220
78213
78239
78242
78259
78247
78224
78251
78236
78242
78261
78239
78227
78246
78233
78243
78243
78199
78125
78057
77999
77952
77931
77934
77940
77947
77935
77955
77956
77959
77979
77977
77966
77965
77957
77980
77986
78011
78024
78025
78053
78059
78070
78055
78064
78082
78093
78095
78106
78128
78144
78158
78144
78095
78004
77949
77923
77888
77862
77860
77861
77860
77866
77863
77888
77904
77914
77919
77909
77909
77882
77886
77908
77915
77925
77929
77933
77947
77943
77966
77989
77981
77977
78015
77991
78022
77986
77921
77830
77776
77695
77682
77692
77692
77717
77720
77744
77792
77824
77835
77856
77851
77800
77752
77705
77674
77646
77635
77619
77603
77594
77589
77587
77594
77621
77611
77630
77630
77620
77636
77640
77638
77624
77538
77414
77315
77256
77230
77188
77164
77152
77133
77107
77090
77106
77127
77131
77125
77115
77133
77121
77121
77109
77140
77144
77133
77119
77152
77181
77166
77172
77181
77218
77226
77220
77231
77264
77311
77325
77343
77352
77365
77392
77405
77393
77409
77418
77421
77450
77457
77477
77470
77513
77522
77544
77567
77561
77578
77545
77453
77337
77233
77149
77137
77117
77106
77111
77104
77120
77117
77115
77146
77178
77208
77233
77229
77217
77216
77223
77265
77273
77297
77294
77320
77334
77338
77390
77395
77408
77426
77472
77497
77541
77573
77598
77618
77633
77659
77700
77713
77740
77774
77796
77816
77844
77869
77873
77888
77912
77922
77915
77843
77748
77659
77601
77575
77550
77538
77547
77545
77543
77539
77551
77603
77622
77643
77656
77679
77666
77656
77646
77660
77674
77691
77681
77712
77712
77732
77750
77752
77767
77765
77770
77796
77800
77829
77826
77836
77853
77865
77882
77885
77891
77902
77907
77925
77942
77943
77962
77916
77830
77754
77695
77646
77653
77649
77650
77658
77644
77658
77670
77665
77691
77707
77713
77705
77699
77691
77685
77720
77726
77747
77749
77765
77770
77787
77794
77806
77806
77834
77810
77808
77849
77828
77859
77853
77888
77897
77911
77890
77938
77929
77910
77842
77762
77706
77659
77633
77642
77622
77632
77648
77657
77648
77678
77707
77732
77722
77760
77764
77765
77808
77805
77812
77828
77839
77831
77860
77857
77851
77879
77881
77886
77893
77886
77885
77888
77909
77885
77895
77882
77902
77911
77921
77907
77849
77745
77672
77617
77600
77584
77577
77570
77579
77580
77598
77591
77618
77636
77656
77649
77643
77644
77659
77655
77672
77699
77709
77723
77721
77728
77758
77754
77769
77770
77799
77796
77818
77824
77847
77858
77837
77859
77871
77862
77871
77867
77886
77895
77909
77914
77913
77920
77924
77935
77912
77814
77684
77611
77551
77506
77499
77490
77488
77470
77475
77474
77488
77496
77510
77511
77519
77499
77493
77496
77480
77473
77477
77485
77480
77469
77470
77479
77503
77488
77507
77518
77526
77515
77528
77521
77530
77553
77540
77559
77563
77569
77578
77568
77603
77608
77629
77630
77655
77658
77650
77576
77470
77350
77271
77241
77213
77241
77253
77253
77245
77254
77255
77262
77302
77349
77351
77351
77356
77358
77365
77376
77379
77370
77382
77400
77432
77428
77454
77490
77500
77503
77519
77544
77571
77572
77587
77598
77613
77624
77642
77636
77677
77691
77714
77711
77652
77544
77453
77385
77343
77328
77332
77329
77322
77358
77346
77353
77386
77384
77414
77405
77412
77407
77402
77425
77437
77445
77429
77449
77480
77474
77502
77501
77532
77549
77550
77572
77572
77592
77613
77613
77626
77651
77653
77659
77610
77482
77392
77322
77273
77255
77273
77248
77254
77263
77266
77279
77311
77324
77331
77323
77325
77320
77327
77322
77334
77350
77364
77374
77385
77398
77426
77411
77427
77446
77461
77489
77491
77490
77503
77504
77521
77537
77504
77419
77324
77210
77158
77140
77121
77106
77104
77090
77082
77109
77109
77129
77151
77174
77192
77187
77195
77193
77183
77211
77231
77243
77250
77255
77273
77294
77323
77292
77333
77341
77363
77383
77424
77483
77533
77545
77588
77671
77683
77729
77743
77781
77782
77799
77707
77575
77445
77318
77245
77211
77197
77197
77210
77220
77198
77219
77235
77282
77313
77315
77340
77364
77395
77370
77345
77288
77232
77176
77146
77195
77339
77325
77272
77160
76852
76606
76354
76219
76165
76075
75958
75913
75935
75803
75590
75165
74664
74492
74312
74111
74183
74629
74817
74887
75225
75150
75038
74958
74921
74978
75103
75529
77086
77918
78014
78316
77027
77403
76620
75314
73733
70944
71845
71781
72278
73574
72725
73992
73861
74435
74755
75219
75180
75133
75126
75174
75175
75180
75240
75261
75302
75341
75377
75375
75399
75444
75487
75527
75572
75592
75518
75447
75372
75335
75335
75331
75308
75314
75292
75295
75280
75277
75277
75294
75309
75312
75330
75315
75325
75299
75300
75331
75333
75354
75365
75371
75394
75416
75413
75440
75447
75452
75445
75457
75474
75477
75456
75385
75292
75246
75200
75172
75169
75167
75167
75163
75163
75165
75176
75193
75203
75192
75215
75192
75158
75189
75202
75174
75180
75184
75170
75172
75158
75194
75200
75194
75210
75225
75241
75250
75259
75278
75297
75178
75108
75049
75025
74962
74943
74906
74938
74955
74979
74993
75011
75057
75081
75154
75227
75266
75275
75293
75336
75320
75334
75399
75433
75461
75512
75549
75616
75662
75734
75756
75825
75863
75917
75988
76040
76087
76110
76143
76202
76271
76329
76322
76252
76193
76159
76139
76150
76183
76211
76213
76245
76250
76273
76316
76329
76377
76415
76425
76437
76458
76468
76482
76508
76550
76576
76608
76620
76646
76677
76694
76724
76766
76781
76825
76845
76928
76926
76964
77005
77046
77072
77099
77096
77131
77165
77168
77183
77226
77240
77267
77285
77320
77343
77367
77396
77417
77392
77327
77210
77145
77078
77053
77067
77048
77045
77046
77044
77054
77058
77070
77094
77139
77141
77125
77122
77128
77128
77121
77132
77148
77172
77155
77183
77175
77181
77200
77202
77219
77228
77250
77258
77275
77297
77336
77352
77375
77387
77409
77431
77437
77479
77479
77514
77531
77519
77553
77566
77593
77612
77634
77631
77610
77537
77417
77335
77263
77244
77204
77207
77202
77210
77209
77187
77189
77189
77192
77211
77178
77190
77142
77136
77118
77107
77103
77080
77085
77080
77092
77087
77070
77095
77104
77124
77148
77160
77181
77195
77213
77214
77241
77258
77269
77287
77289
77302
77310
77305
77302
77337
77338
77342
77301
77191
77077
76989
76923
76896
76863
76878
76864
76877
76859
76854
76863
76880
76887
76893
76905
76882
76870
76870
76873
76877
76880
76878
76887
76906
76906
76946
76934
76964
76968
76979
77020
77017
77028
77054
77046
77048
77065
77097
77092
77109
77133
77098
77006
76887
76787
76724
76675
76659
76646
76634
76643
76637
76625
76638
76651
76667
76678
76689
76674
76650
76663
76649
76654
76679
76674
76683
76682
76703
76707
76744
76770
76789
76782
76812
76812
76844
76849
76869
76891
76880
76881
76873
76917
76906
76917
76935
76872
76809
76697
76604
76546
76521
76534
76550
76580
76589
76593
76601
76601
76594
76606
76609
76612
76633
76628
76608
76603
76588
76584
76572
76582
76569
76593
76609
76597
76637
76661
76658
76671
76684
76702
76705
76702
76706
76724
76708
76726
76733
76733
76721
76724
76750
76765
76769
76772
76784
76801
76799
76751
76637
76539
76454
76415
76374
76380
76370
76393
76393
76421
76411
76424
76413
76379
76344
76298
76336
76344
76355
76354
76358
76366
76358
76398
76404
76410
76428
76441
76432
76436
76470
76515
76541
76606
76648
76620
76584
76543
76497
76468
76442
76418
76406
76405
76384
76395
76397
76386
76398
76335
76234
76115
76059
76017
75998
76006
75992
76002
75987
75977
75994
75998
76007
76030
76024
75992
75963
75944
75943
75943
75934
75947
75962
75969
75960
75970
75981
75994
75986
75980
76000
76019
76027
76022
76048
76046
76040
76033
76069
76058
76056
76000
75907
75818
75789
75759
75741
75719
75742
75741
75739
75739
75769
75784
75813
75806
75812
75783
75774
75771
75780
75768
75789
75779
75812
75799
75806
75819
75835
75849
75847
75863
75866
75880
75910
75903
75935
75903
75941
75950
75963
75943
75822
75734
75676
75626
75620
75592
75593
75585
75610
75585
75586
75580
75606
75636
75647
75656
75630
75621
75640
75647
75645
75643
75665
75684
75695
75702
75740
75744
75762
75765
75778
75804
75794
75829
75847
75857
75865
75874
75891
75887
75895
75918
75918
75926
75962
75943
75965
75970
75977
75987
75995
76003
76006
75955
75850
75745
75688
75656
75636
75629
75629
75639
75628
75636
75655
75661
75685
75692
75695
75698
75685
75694
75699
75712
75722
75718
75730
75728
75749
75772
75778
75801
75821
75812
75849
75828
75854
75861
75880
75897
75909
75936
75953
75965
75964
75988
76001
76000
76024
76044
76062
76050
76077
76095
76086
76105
76120
76114
76079
75982
75880
75817
75783
75772
75760
75756
75764
75777
75762
75771
75787
75794
75811
75828
75824
75818
75817
75811
75825
75828
75840
75830
75862
75851
75863
75855
75880
75887
75910
75915
75937
75924
75936
75942
75948
75938
75946
75959
75954
75951
75989
76001
75997
75990
76002
75997
76029
75994
75925
75843
75761
75718
75709
75719
75743
75736
75729
75742
75748
75735
75760
75773
75788
75787
75785
75776
75766
75762
75773
75788
75776
75788
75787
75794
75815
75841
75847
75842
75872
75870
75894
75897
75893
75903
75939
75931
75940
75955
75957
75956
75965
76003
75756
75770
75814
75804
75700
75614
75564
75512
75499
75491
75463
75458
75461
75458
75436
75464
75469
75473
75508
75459
75479
75490
75468
75484
75477
75490
75502
75499
75504
75521
75539
75539
75556
75577
75588
75588
75592
75614
75649
75656
75656
75680
75680
75704
75697
75716
75729
75747
75757
75765
75763
75781
75789
75798
75806
75826
75836
75828
75782
75710
75606
75517
75489
75478
75487
75480
75465
75479
75462
75474
75475
75473
75486
75512
75513
75501
75477
75498
75497
75491
75490
75516
75505
75518
75526
75541
75556
75554
75569
75576
75588
75602
75636
75619
75631
62798
75658
75658
75666
75677
75691
75719
75714
75716
75724
75734
75754
75753
75769
75757
75732
75659
75553
75477
75427
75414
75432
75420
75423
75422
75434
75452
75443
75477
75487
75507
75514
75516
75497
75486
75509
75525
75524
75534
75535
75544
75564
75566
75554
75582
75625
75616
75633
75627
75648
75671
75663
75688
75685
75701
75698
75706
75720
75721
75731
75743
75779
75734
75649
75575
75494
75455
75447
75437
75446
75447
75450
75469
75463
75466
75508
75504
75517
75542
75532
75532
75510
75508
75514
75535
75550
75539
75564
75579
75598
75612
75625
75633
75643
75662
75645
75659
75697
75696
75733
75725
75751
75751
75753
75768
75773
75777
75790
75795
75822
75820
75779
75705
75594
75530
75520
75508
75508
75498
75514
75520
75518
75496
75536
75545
75566
75577
75565
75561
75569
75573
75593
75581
75614
75582
75621
75637
75636
75655
75651
75660
75671
75689
75713
75731
75726
75751
75751
75773
75795
75795
75829
75828
75836
75840
75869
75897
75884
75877
75904
75918
75901
75917
75950
75941
75929
75905
75802
75708
75650
75601
75589
75596
75599
75587
75582
75593
75589
75583
75611
75615
75654
75635
75654
75629
75636
75631
75637
75650
75655
75660
75673
75693
75688
75701
75723
75757
75766
75764
75773
75795
75799
75820
75815
75868
75862
75888
75881
75881
75903
75922
75917
75919
75936
75937
75958
75975
75974
75958
75927
75847
75775
75698
75653
75635
75624
75607
75606
75612
75630
75631
75626
75650
75665
75675
75685
75658
75666
75671
75666
75665
75665
75692
75671
75667
75699
75692
75722
75706
75724
75741
75756
75763
75752
75781
75782
75791
75786
75795
75797
75824
75825
75842
75836
75850
75850
75853
75779
75685
75600
75554
75534
75512
75513
75524
75532
75538
75545
75529
75547
75580
75576
75579
75579
75570
75555
75566
75568
75581
75581
75591
75621
75606
75605
75641
75636
75662
75665
75682
75688
75710
75713
75728
75726
75735
75772
75773
75759
75793
75794
75796
75792
75824
75808
75784
75698
75602
75524
75485
75436
75463
75429
75416
75461
75456
75450
75444
75447
75496
75483
75503
75493
75489
75507
75516
75492
75504
75513
75538
75527
75545
75573
75576
75584
75591
75612
75619
75644
75637
75661
75683
75696
75697
75713
75724
75729
75733
75756
75766
75785
75804
75806
75819
75833
75821
75855
75863
75863
75855
75783
75689
75579
75537
75535
75519
75513
75522
75523
75513
75531
75530
75538
75558
75598
75554
75589
75573
75584
75564
75577
75576
75587
75596
75606
75610
75636
75630
75645
75677
75683
75710
75692
75711
75728
75727
75761
75766
75780
75789
75814
75816
75836
75842
75856
75856
75860
75883
75888
75904
75899
75919
75855
75786
75698
75623
75607
75597
75611
75604
75593
75614
75622
75635
75648
75655
75684
75693
75713
75696
75679
75684
75721
75704
75734
75722
75723
75736
75745
75746
75787
75771
75809
75811
75849
75845
75843
75875
75872
75908
75899
75901
75914
75934
75930
75942
75955
75951
75913
75810
75719
75671
75646
75641
75626
75638
75647
75657
75645
75654
75685
75707
75723
75701
75713
75703
75679
75693
75710
75702
75712
75714
75719
75723
75740
75765
75747
75778
75791
75798
75826
75814
75845
75844
75853
75865
75878
75903
75907
75892
75908
75887
75836
75815
75787
75788
75794
75732
75655
75539
75506
75468
75446
75457
75450
75461
75455
75438
75430
75460
75473
75489
75493
75494
75493
75485
75455
75474
75472
75496
75492
75521
75511
75511
75506
75507
75508
75497
75513
75523
75539
75558
75577
75577
75615
75627
75637
75638
75675
75694
75697
75719
75727
75747
75752
75752
75764
75778
75784
75796
75800
75794
75699
75580
75500
75458
75407
75380
75377
75360
75389
75380
75366
75377
75382
75392
75414
75410
75415
75401
75405
75400
75399
75406
75413
75417
75417
75422
75461
75456
75458
75441
75442
75440
75424
75413
75428
75439
75447
75458
75478
75475
75498
75535
75525
75549
75556
75566
75567
75583
75601
75591
75628
75604
75512
75401
75303
75253
75226
75206
75204
75199
75217
75226
75252
75276
75291
75332
75352
75368
75370
75342
75363
75351
75378
75382
75404
75410
75405
75423
75438
75457
75465
75487
75491
75496
75512
75520
75535
75547
75565
75597
75585
75614
75625
75625
75661
75669
75683
75694
75708
75658
75569
75479
75438
75396
75410
75401
75422
75427
75420
75447
75435
75455
75467
75500
75528
75531
75529
75548
75545
75547
75545
75553
75554
75573
75611
75616
75628
75636
75648
75651
75677
75692
75708
75717
75744
75754
75761
75784
75782
75804
75812
75818
75845
75846
75865
75877
75899
75911
75926
75943
75951
75958
75966
75879
75798
75708
75641
75609
75598
75616
75610
75613
75604
75599
75605
75624
75649
75658
75677
75663
75685
75681
75678
75665
75669
75692
75702
75715
75720
75752
75757
75768
75778
75791
75795
75810
75818
75832
75860
75865
75894
75889
75942
75901
75944
75947
75956
75967
75965
75980
75980
75973
75990
75993
76012
76008
75969
75862
75761
75712
75693
75655
75652
75652
75661
75663
75663
75653
75665
75695
75701
75726
75718
75697
75713
75708
75687
75707
75722
75719
75742
75723
75719
75729
75735
75762
75769
75775
75781
75790
75791
75817
75812
75836
75845
75861
75865
75868
75884
75872
75885
75880
75890
75907
75902
75898
75850
75740
75682
75605
75555
75572
75557
75558
75558
75575
75580
75569
75605
75629
75627
75652
75653
75639
75617
75634
75627
75613
75634
75640
75645
75642
75643
75664
75692
75699
75705
75701
75715
75716
75755
75766
75762
75772
75783
75773
75807
75811
75827
75821
75768
75663
75577
75515
75508
75495
75511
75483
75499
75503
75503
75509
75548
75550
75577
75569
75580
75557
75561
75568
75571
75574
75583
75605
75595
75621
75638
75633
75639
75665
75675
75680
75700
75706
75722
75739
75749
75757
75755
75779
75790
75806
75821
75797
75721
75614
75525
75472
75452
75441
75438
75446
75432
75443
75446
75439
75450
75470
75489
75487
75522
75501
75504
75522
75510
75498
75529
75536
75557
75562
75591
75596
75597
75616
75634
75641
75669
75685
75695
75709
75727
75735
75762
75761
75769
75799
75823
75828
75814
75843
75858
75875
75880
75895
75925
75927
75942
75940
75977
75986
75954
75860
75760
75678
75628
75614
75589
75591
75603
75618
75611
75614
75619
75643
75663
75676
75681
75682
75699
75697
75698
75701
75704
75715
75748
75730
75755
75767
75774
75798
75790
75825
75826
75850
75862
75885
75907
75921
75935
75951
75960
75986
75992
75999
76017
76030
76031
76038
76045
76039
76056
76079
76086
76102
76033
75953
75846
75785
75724
75704
75693
75697
75697
75708
75712
75724
75752
75760
75788
75807
75823
75794
75782
75784
75801
75798
75801
75819
75838
75843
75842
75838
75870
75896
75918
75927
75951
75941
75970
75955
75963
75954
75954
75960
75957
75962
75967
75984
75982
76024
76036
76031
75999
75906
75822
75747
75725
75704
75724
75726
75720
75728
75726
75740
75740
75758
75806
75820
75814
75795
75765
75752
75744
75739
75761
75761
75788
75803
75805
75838
75839
75855
75886
75902
75890
75917
75933
75943
75944
75969
75967
75982
75965
75994
76012
76012
76013
75984
75898
75772
75697
75609
75605
75591
75567
75550
75570
75573
75588
75598
75600
75644
75655
75647
75664
75669
75638
75647
75647
75661
75672
75699
75713
75699
75720
75739
75738
75763
75784
75808
75814
75831
75854
75850
75887
75888
75915
75945
75951
75966
75983
75976
75984
75991
76009
76014
76025
76025
75998
75902
75788
75722
75673
75644
75631
75632
75623
75632
75642
75628
75639
75653
75660
75682
75694
75687
75702
75680
75702
75688
75696
75710
75710
75739
75731
75707
75742
75749
75770
75772
75778
75813
75819
75810
75827
75843
75867
75872
75890
75901
75921
75923
75939
75945
75969
75984
75982
75998
76001
76021
76019
75995
75913
75797
75720
75681
75661
75633
75633
75640
75632
75630
75641
75673
75667
75691
75716
75714
75714
75685
75696
75698
75707
75701
75713
75723
75740
75744
75751
75777
75784
75797
75838
75836
75840
75859
75855
75886
75905
75902
75918
75925
75946
75946
75956
75965
75982
75979
75979
76000
75966
75890
75777
75706
75651
75641
75638
75647
75662
75687
75670
75666
75694
75710
75739
75769
75769
75771
75764
75757
75772
75758
75787
75798
75807
75808
75827
75837
75858
75855
75864
75874
75892
75896
75927
75919
75946
75966
75965
75975
75989
75993
76023
76019
76037
76048
76046
76016
75911
75814
75743
75708
75680
75683
75689
75692
75708
75690
75713
75725
75752
75777
75790
75791
75800
75779
75789
75782
75805
75806
75821
75808
75840
75850
75859
75860
75879
75907
75923
75933
75950
75943
75984
75999
75996
76020
76021
76023
76036
76073
76061
76067
76080
76087
76100
76119
76106
76104
76123
76042
75923
75819
75737
75728
75713
75716
75710
75696
75696
75729
75705
75722
75741
75740
75781
75772
75769
75752
75751
75755
75759
75747
75769
75760
75757
75756
75767
75766
75759
75793
75794
75793
75809
75811
75834
75852
75870
75893
75893
75913
75928
75926
75938
75943
75958
75959
75963
75971
75981
75965
75959
75914
75816
75706
75622
75605
75565
75562
75549
75562
75562
75582
75556
75579
75584
75610
75623
75623
75605
75615
75597
75599
75597
75607
75621
75615
75632
75649
75650
75677
75660
75678
75687
75709
75707
75726
75752
75756
75770
75781
75788
75801
75789
75802
75803
75826
75822
75820
75832
75744
75644
75579
75516
75469
75480
75501
75473
75480
75491
75503
75500
75527
75549
75559
75573
75558
75549
75556
75556
75546
75563
75572
75579
75585
75596
75604
75610
75634
75638
75655
75640
75672
75686
75700
75703
75709
75720
75724
75742
75756
75749
75719
75639
75536
75464
75424
75398
75412
75411
75414
75409
75432
75449
75436
75473
75507
75518
75518
75524
75516
75496
75485
75524
75555
75563
75581
75578
75594
75616
75616
75655
75663
75669
75683
75719
75721
75747
75760
75759
75759
75778
75779
75792
75820
75771
75669
75575
75495
75448
75437
75438
75453
75451
75456
75468
75453
75470
75484
75504
75496
75534
75552
75544
75537
75525
75528
75539
75578
75574
75618
75609
75627
75648
75668
75676
75683
75722
75719
75734
75746
75784
75774
75818
75826
75850
75866
75878
75889
75919
75914
75926
75926
75961
75957
75972
75902
75788
75700
75638
75612
75580
75589
75570
75601
75604
75573
75610
75597
75657
75655
75674
75671
75662
75666
75670
75672
75682
75709
75712
75733
75731
75764
75777
75766
75787
75807
75817
75847
75864
75876
75875
75897
75903
75929
75924
75974
75960
75973
75995
75980
75983
75993
76026
76008
76020
76004
75905
75821
75723
75681
75669
75654
75664
75648
75669
75665
75667
75688
75703
75706
75722
75735
75704
75700
75717
75715
75712
75728
75728
75729
75740
75751
75765
75764
75775
75793
75811
75828
75839
75842
75860
75855
75886
75893
75901
75903
75933
75909
75934
75949
75969
75956
75914
75814
75716
75659
75642
75644
75641
75644
75649
75660
75653
75664
75686
75706
75720
75722
75726
75702
75712
75725
75728
75749
75765
75755
75772
75791
75809
75792
75837
75848
75863
75881
75884
75925
75927
75933
75949
75955
75978
75985
75981
75970
75900
75798
75716
75672
75657
75658
75649
75659
75678
75692
75675
75686
75710
75736
75746
75753
75760
75742
75752
75766
75759
75779
75788
75812
75823
75828
75846
75887
75891
75895
75898
75935
75933
75956
75971
75978
76007
76012
76029
76021
76039
76041
76066
76079
76076
76094
76110
76118
76142
76100
76066
75953
75867
75803
75769
75767
75767
75788
75782
75794
75798
75789
75793
75824
75854
75860
75852
75856
75857
75870
75882
75870
75890
75893
75895
75936
75925
75950
75968
75980
75997
76015
76027
76024
76055
76073
76079
76093
76116
76118
76149
76146
76167
76178
76196
76213
76225
76221
76240
76265
76251
76279
76283
76281
76241
76155
76055
75982
75933
75934
75920
75933
75934
75917
75926
75927
75944
75963
75973
76015
75999
76009
75995
76006
75997
75994
75990
76010
76006
76026
76039
76035
76057
76060
76080
76084
76092
76117
76131
76139
76152
76153
76175
76185
76193
76214
76223
76226
76236
76245
76261
76255
76274
76263
76273
76226
76108
76042
76003
75947
75965
75953
75955
75973
75965
75991
75987
76006
76034
76046
76067
76061
76060
76069
76054
76058
76047
76061
76064
76085
76089
76105
76108
76137
76137
76151
76166
76188
76204
76199
76213
76220
76230
76231
76237
76272
76271
76292
76288
76307
76310
76266
76169
76093
76028
75990
75980
75958
75973
75975
76006
75997
76008
76024
76025
76072
76060
76077
76067
76067
76033
76065
76077
76074
76093
76091
76099
76132
76137
76148
76154
76159
76157
76199
76191
76211
76207
76208
76245
76242
76269
76273
76294
76300
76308
76302
76319
76323
76338
76330
76360
76350
76290
76185
76087
76025
76008
75966
75970
75963
75950
75955
75957
75954
75971
75988
75993
76013
76028
76019
76003
76004
75984
75993
75997
76015
76022
76039
76041
76045
76050
76054
76061
76082
76092
76113
76115
76129
76120
76145
76153
76167
76191
76197
76220
76233
76217
76238
76242
76254
76249
76279
76300
76297
76309
76255
76156
76052
75962
75935
75923
75900
75886
75896
75893
75892
75879
75905
75913
75925
75945
75949
75948
75952
75960
75957
75946
75922
75942
75965
75983
75974
75998
75990
75997
76017
76020
76030
76050
76047
76064
76072
76101
76096
76124
76127
76123
76139
76157
76144
76169
76169
76173
76170
76171
76180
76116
75998
75899
75844
75802
75794
75795
