78205
78201
78234
78237
78262
78277
78281
78289
78284
78266
78260
78232
78203
78242
78191
78228
78242
78244
78236
78245
78262
78243
78212
78132
78124
78112
78121
78162
78170
78202
78247
78263
78314
78316
78331
78346
78336
78338
78331
78300
78273
78216
78113
77951
77096
76226
75038
76529
75683
76025
76289
76433
76551
76665
76815
77058
77220
77259
77282
77294
77271
77257
77195
77172
77155
77132
77133
77030
76973
76860
76644
76499
76418
76344
76312
76304
76227
76268
76304
76355
76357
76364
76396
76419
76446
76512
76590
76703
76738
76787
76759
76734
76698
76669
76544
76388
76314
76244
76217
76198
76246
76266
76287
76337
76324
76330
76299
76292
76268
76255
76257
76307
76356
76382
76377
76396
76403
76429
76413
76340
76268
76189
76143
76173
76181
76215
76255
76315
76356
76413
76440
76494
76555
76603
76659
76649
76635
76641
76632
76665
76641
76645
76640
76636
76574
76493
76377
76326
76314
76317
76334
76356
76379
76411
76430
76450
76429
76417
76393
76408
76402
76425
76436
76422
76454
76447
76418
76399
76370
76309
76169
76020
75921
75874
75866
75863
75931
76020
76115
76170
76304
76334
76370
76392
76445
76467
76488
76489
76485
76517
76582
76679
76725
76734
76672
76605
76576
76570
76610
76616
76634
76690
76729
76725
76768
76758
76786
76787
76810
76803
76792
76767
76770
76732
76699
76715
76645
76583
76490
76413
76338
76297
76314
76283
76230
76196
76134
76051
75944
75875
75829
75832
75796
75787
75791
75762
75753
75743
75738
75774
75766
75776
75834
75970
76093
76181
76236
76282
76342
76391
76440
76460
76485
76421
76402
76390
76416
76408
76398
76392
76367
76365
76373
76377
76404
76355
76194
76070
76010
75958
75931
75949
75995
76077
76131
76167
76197
76219
76260
76251
76262
76320
76395
76423
76425
76449
76461
76430
76423
76410
76352
76259
76162
76160
76174
76232
76300
76369
76414
76463
76554
76611
76682
76692
76712
76683
76702
76683
76708
76728
76722
76701
76719
76730
76636
76348
75868
75391
75041
74861
74698
74670
74795
75006
75240
75486
75742
75897
75989
76129
76139
76133
76123
76144
76162
76169
76198
76201
76195
76191
76192
76146
76060
76001
75998
75996
76013
76031
76071
76134
76191
76238
76280
76283
76284
76294
76321
76348
76356
76382
76386
76399
76415
76418
76403
76361
76254
76164
76152
76163
76166
76231
76262
76279
76318
76370
76389
76402
76412
76425
76457
76465
76480
76510
76537
76556
76607
76624
76640
76562
76493
76463
76453
76469
76510
76555
76610
76665
76710
76770
76801
76824
76865
76894
76941
76977
77012
77025
77070
77084
77086
77121
77101
76989
76904
76848
76854
76825
76843
76868
76904
76975
77013
77040
77083
77115
77142
77153
77166
77188
77188
77221
77240
77260
77296
77295
77329
77284
77196
77112
77072
77073
77080
77079
77117
77162
77203
77225
77247
77240
77270
77268
77267
77298
77295
77319
77318
77320
77333
77340
77318
77206
77077
76935
76792
76613
76526
76535
76540
76623
76677
76778
76855
76884
76870
76839
76852
76823
76824
76828
76848
76851
76870
76889
76927
76943
76866
76742
76665
76621
76634
76619
76609
76634
76676
76720
76733
76760
76764
76782
76785
76785
76817
76837
76844
76850
76870
76887
76899
76931
76906
76809
76674
76603
76581
76585
76569
76621
76630
76738
76845
76904
76988
77028
77049
77090
77124
77128
77115
77132
77140
77162
77141
77162
77204
77228
77231
77135
77036
76981
76962
76953
76952
77000
77009
77072
77152
77176
77211
77201
77205
77233
77237
77268
77265
77313
77319
77333
77319
77357
77343
77352
77358
77273
77209
77152
77153
77139
77152
77176
77215
77251
77262
77278
77270
77236
77209
77212
77210
77174
77180
77171
77190
77216
77236
77256
77287
77240
77167
77062
76993
76964
76939
76973
76994
77072
77166
77195
77230
77265
77295
77342
77393
77453
77516
77581
77646
77701
77784
77818
77872
77910
77873
77818
77736
77707
77763
77775
77770
77805
77846
77859
77900
77911
77889
77883
77900
77909
77914
77918
77944
77956
77990
77994
78004
78027
77987
77951
77882
77846
77805
77809
77842
77874
77903
77951
77978
78059
78103
78114
78153
78188
78235
78266
78306
78311
78348
78350
78408
78427
78440
78459
78418
78349
78291
78271
78276
78279
78316
78325
78353
78405
78413
78464
78459
78455
78456
78455
78449
78455
78502
78483
78498
78483
78484
78511
78530
78536
78527
78457
78355
78302
78318
78307
78306
78325
78288
78295
78336
78342
78379
78370
78385
78389
78373
78410
78428
78439
78462
78486
78550
78614
78716
78777
78781
78805
78870
78774
78644
78634
78615
78644
78671
78711
78775
78724
78714
78666
78633
78642
78555
78521
78478
78539
78651
78811
78865
78909
78983
78966
78987
79022
78992
78983
78892
78848
78851
78916
79022
79048
79110
79225
79275
79326
79326
79413
79500
79536
79530
79550
79546
79510
79501
79511
79531
79557
79546
79595
79558
79518
79427
79377
79351
79383
79383
79391
79411
79445
79453
79480
79506
79483
79511
79491
79490
79492
79496
79487
79472
79459
79438
79454
79454
79421
79367
79294
79243
79228
79220
79215
79211
79230
79213
79245
79285
79281
79266
79247
79246
79234
79241
79236
79254
79290
79298
79304
79327
79341
79371
79334
79259
79228
79194
79179
79146
79164
79180
79178
79198
79224
79241
79245
79277
79229
79222
79209
79212
79192
79186
79191
79190
79203
79195
79222
79224
79239
79222
79167
79077
79082
79044
79081
79078
79117
79123
79103
79163
79143
79151
79168
79170
79187
79176
79153
79131
79113
79126
79132
79136
79141
79119
79118
79146
79109
79116
79046
78982
78960
78937
78948
78928
78974
78978
78988
79008
79027
79025
79040
79061
79077
79063
79072
79114
79106
79115
79110
79102
79095
79101
79132
79153
79121
79078
79014
79015
79026
79035
79032
79005
78967
78984
79000
79007
79028
79026
79019
79030
79040
79054
79059
79076
79094
79089
79075
79078
79093
79056
78994
78929
78900
78886
78872
78878
78897
78921
78923
78931
78943
78937
78947
78940
78933
78922
78933
78940
78943
78925
78933
78937
78939
78951
78922
78882
78826
78794
78766
78766
78779
78765
78800
78812
78843
78865
78868
78854
78845
78843
78801
78807
78789
78755
78702
78656
78599
78524
78482
78466
78397
78312
78194
78084
78023
77872
77720
77632
77560
77564
77458
77340
77165
77004
76929
76958
76995
76758
76484
76217
75993
75873
75756
75840
75830
75622
75864
75927
75863
75736
75585
75520
75953
75983
76266
76607
76927
77403
77705
77887
77919
78179
78267
78123
78004
77982
78293
78537
78852
78962
78716
78557
78460
78597
78523
78646
78581
78463
78335
78234
78150
78213
78170
78089
77828
77750
77686
77793
77643
77319
77110
77041
76910
76899
77277
77546
77667
77633
77747
77812
77814
77638
77501
77934
78184
78101
77681
77515
77328
77225
77191
77269
77326
77360
77423
77494
77571
77579
77526
77530
77488
77495
77536
77484
77474
77366
77320
77274
77224
77160
77134
77158
77176
77248
77312
77368
77416
77414
77424
77458
77490
77492
77492
77522
77510
77505
77521
77541
77579
77585
77589
77507
77475
77489
77469
77434
77449
77547
77594
77642
77678
77703
77772
77816
77823
77834
77842
77832
77832
77831
77834
77810
77838
77825
77846
77782
77758
77751
77766
77800
77821
77878
77909
77967
77978
77992
78013
78041
78057
78055
78073
78098
78097
78132
78140
78163
78163
78174
78181
78152
78090
78060
78028
78002
77995
78008
78012
78081
78080
78095
78121
78119
78115
78114
78137
78139
78159
78185
78178
78175
78191
78201
78209
78208
78194
78154
78144
78167
78170
78201
78210
78227
78256
78268
78266
78279
78276
78261
78293
78298
78322
78334
78344
78359
78359
78371
78396
78376
78411
78374
78343
78325
78342
78334
78384
78379
78415
78424
78443
78453
78474
78472
78491
78476
78507
78514
78535
78552
78551
78585
78593
78599
78576
78542
78515
78513
78526
78543
78553
78575
78555
78598
78609
78623
78635
78621
78653
78643
78651
78672
78686
78673
78681
78687
78717
78702
78693
78674
78632
78614
78623
78614
78627
78665
78680
78659
78677
78696
78708
78706
78734
78726
78754
78771
78791
78821
78811
78814
78815
78817
78808
78820
78799
78755
78670
78645
78629
78620
78603
78622
78623
78638
78643
78683
78667
78693
78682
78684
78673
78695
78695
78703
78703
78708
78715
78699
78737
78727
78723
78729
78705
78679
78648
78641
78627
78722
78791
78805
78837
78840
78848
78846
78842
78824
78787
78804
78801
78803
78804
78801
78789
78800
78790
78776
78805
78797
78816
78766
78743
78683
78706
78709
78706
78716
78738
78727
78742
78760
78774
78775
78759
78773
78759
78768
78762
78767
78756
78800
78786
78791
78789
78768
78784
78709
78673
78664
78653
78680
78675
78686
78691
78715
78733
78751
78758
78767
78754
78776
78790
78778
78789
78787
78809
78821
78834
78840
78863
78827
78779
78750
78749
78728
78739
78736
78739
78754
78776
78785
78785
78767
78778
78776
78780
78784
78760
78769
78808
78800
78817
78800
78819
78819
78829
78803
78787
78717
78696
78698
78697
78726
78725
78735
78724
78749
78782
78776
78789
78783
78787
78791
78803
78810
78805
78810
78807
78807
78819
78821
78831
78849
78841
78846
78817
78786
78754
78732
78734
78721
78742
78741
78738
78787
78787
78796
78756
78747
78765
78764
78794
78801
78809
78799
78793
78805
78790
78789
78771
78764
78782
78798
78768
78767
78754
78676
78653
78622
78637
78640
78634
78669
78687
78686
78711
78700
78702
78690
78697
78675
78694
78685
78702
78689
78700
78701
78700
78683
78714
78723
78701
78655
78615
78590
78592
78574
78578
78587
78619
78603
78642
78640
78643
78641
78652
78658
78641
78676
78662
78675
78675
78678
78668
78672
78699
78715
78679
78648
78578
78565
78563
78555
78564
78582
78604
78610
78625
78635
78651
78672
78650
78654
78674
78668
78672
78699
78705
78696
78703
78730
78736
78725
78681
78657
78607
78610
78602
78604
78616
78627
78629
78642
78674
78658
78684
78661
78668
78686
78698
78703
78682
78712
78707
78714
78708
78730
78728
78723
78697
78646
78615
78589
78606
78597
78594
78611
78644
78617
78643
78668
78669
78661
78680
78671
78688
78693
78713
78708
78694
78695
78694
78703
78707
78694
78707
78691
78645
78610
78571
78578
78575
78587
78596
78598
78624
78616
78632
78653
78628
78642
78654
78634
78650
78663
78672
78673
78678
78668
78690
78680
78681
78713
78689
78663
78608
78591
78600
78577
78582
78591
78600
78621
78641
78660
78663
78677
78683
78670
78672
78677
78697
78701
78685
78708
78722
78721
78724
78727
78725
78688
78647
78615
78628
78630
78626
78665
78654
78663
78684
78689
78717
78719
78703
78695
78702
78716
78743
78742
78756
78753
78745
78783
78765
78766
78753
78704
78682
78654
78628
78642
78676
78655
78672
78688
78710
78711
78726
78742
78762
78758
78780
78769
78783
78770
78816
78831
78816
78817
78828
78820
78825
78765
78734
78721
78718
78710
78717
78719
78732
78737
78755
78767
78753
78763
78756
78747
78761
78766
78767
78754
78781
78768
78789
78781
78781
78775
78790
78782
78777
78725
78679
78658
78654
78633
78659
78655
78671
78684
78694
78707
78703
78727
78724
78716
78711
78725
78725
78705
78728
78732
78752
78754
78756
78772
78777
78774
78753
78712
78687
78684
78687
78682
78701
78730
78755
78777
78751
78785
78795
78779
78776
78788
78788
78793
78819
78802
78829
78817
78844
78810
78839
78856
78824
78782
78745
78732
78720
78738
78744
78749
78743
78786
78779
78788
78825
78803
78795
78809
78823
78842
78839
78846
78845
78848
78855
78870
78866
78866
78857
78841
78793
78779
78761
78768
78758
78788
78775
78787
78815
78815
78829
78854
78844
78850
78836
78850
78841
78880
78865
78868
78862
78863
78896
78880
78881
78899
78873
78835
78785
78760
78765
78776
78785
78796
78793
78803
78798
78829
78858
78848
78843
78832
78854
78854
78855
78845
78876
78887
78888
78863
78866
78878
78884
78857
78830
78770
78737
78701
78702
78700
78668
78683
78694
78700
78711
78695
78677
78667
78660
78675
78665
78653
78660
78649
78665
78662
78668
78663
78672
78697
78669
78610
78573
78569
78568
78551
78568
78556
78583
78566
78572
78618
78595
78603
78604
78616
78609
78635
78618
78643
78639
78659
78677
78682
78685
78683
78670
78625
78583
78577
78574
78606
78587
78607
78612
78633
78633
78661
78676
78671
78683
78678
78688
78685
78701
78741
78724
78730
78733
78753
78753
78760
78708
78667
78646
78657
78675
78678
78682
78703
78718
78736
78740
78744
78762
78742
78756
78749
78762
78765
78772
78784
78781
78797
78792
78793
78794
78797
78765
78716
78703
78687
78691
78698
78705
78723
78731
78766
78762
78763
78778
78775
78765
78768
78759
78781
78779
78764
78767
78783
78771
78775
78788
78781
78788
78773
78737
78717
78691
78669
78688
78669
78693
78688
78716
78724
78736
78747
78752
78753
78722
78764
78740
78744
78763
78765
78748
78774
78761
78778
78768
78787
78765
78762
78704
78654
78652
78645
78635
78651
78666
78665
78698
78708
78708
78729
78713
78726
78711
78726
78743
78730
78752
78746
78769
78775
78775
78781
78779
78781
78747
78700
78660
78677
78671
78697
78722
78714
78731
78737
78745
78751
78762
78776
78785
78765
78798
78798
78793
78790
78802
78797
78830
78815
78812
78809
78757
78711
78699
78674
78692
78695
78707
78720
78734
78750
78763
78768
78794
78793
78780
78784
78810
78813
78819
78815
78814
78830
78829
78831
78849
78836
78809
78792
78756
78743
78740
78733
78745
78754
78778
78770
78780
78793
78801
78793
78797
78819
78803
78824
78853
78813
78813
78812
78828
78847
78828
78839
78821
78814
78777
78724
78686
78678
78704
78698
78687
78697
78719
78717
78723
78740
78732
78732
78717
78735
78739
78747
78748
78753
78748
78743
78727
78754
78760
78730
78737
78703
78646
78610
78605
78604
78614
78615
78635
78637
78645
78673
78663
78653
78678
78684
78660
78654
78654
78674
78670
78671
78702
78686
78679
78690
78710
78681
78642
78580
78571
78583
78574
78569
78566
78587
78616
78631
78639
78656
78653
78661
78665
78669
78705
78665
78686
78695
78670
78710
78696
78702
78709
78679
78671
78608
78597
78581
78591
78600
78599
78625
78656
78649
78679
78692
78694
78700
78705
78718
78752
78739
78747
78747
78767
78764
78781
78794
78811
78782
78741
78698
78690
78688
78691
78699
78709
78716
78717
78741
78761
78764
78790
78766
78809
78785
78802
78797
78796
78798
78803
78809
78825
78828
78827
78852
78800
78753
78718
78713
78690
78715
78699
78712
78712
78718
78742
78744
78753
78751
78754
78747
78751
78754
78767
78755
78763
78767
78770
78794
78809
78797
78774
78764
78718
78695
78662
78652
78645
78652
78683
78686
78684
78705
78700
78695
78706
78688
78685
78703
78699
78690
78700
78699
78712
78699
78742
78715
78705
78707
78731
78680
78615
78594
78582
78581
78578
78585
78596
78609
78628
78629
78636
78628
78629
78620
78633
78629
78627
78655
78643
78655
78651
78645
78654
78659
78674
78665
78622
78603
78551
78545
78520
78532
78554
78583
78584
78590
78602
78615
78614
78611
78615
78615
78645
78646
78630
78657
78652
78649
78673
78689
78693
78689
78662
78625
78588
78570
78572
78606
78581
78599
78626
78632
78629
78645
78645
78673
78621
78622
78631
78635
78625
78639
78649
78656
78642
78678
78677
78670
78641
78588
78561
78554
78557
78552
78578
78596
78604
78599
78639
78634
78655
78634
78647
78655
78670
78671
78683
78668
78705
78703
78710
78720
78719
78716
78707
78656
78624
78617
78582
78594
78604
78607
78612
78625
78639
78643
78668
78642
78673
78646
78628
78661
78665
78652
78660
78664
78674
78679
78690
78673
78672
78681
78642
78579
78567
78549
78532
78561
78561
78552
78569
78593
78591
78605
78593
78585
78591
78600
78611
78613
78610
78637
78625
78621
78635
78623
78608
78636
78632
78593
78557
78520
78521
78504
78512
78529
78544
78556
78571
78574
78603
78596
78586
78595
78608
78613
78639
78620
78627
78637
78661
78658
78666
78681
78664
78645
78608
78564
78574
78554
78586
78585
78609
78609
78632
78644
78641
78686
78679
78681
78655
78697
78680
78703
78697
78711
78701
78731
78745
78728
78737
78687
78641
78607
78585
78607
78637
78651
78643
78651
78665
78681
78684
78692
78704
78702
78701
78698
78710
78713
78747
78705
78721
78749
78749
78731
78747
78718
78670
78618
78596
78608
78599
78628
78638
78629
78633
78651
78662
78671
78664
78666
78681
78677
78681
78677
78698
78686
78683
78701
78708
78705
78721
78710
78716
78661
78621
78593
78595
78578
78593
78619
78609
78623
78651
78654
78670
78691
78698
78676
78684
78662
78679
78689
78723
78699
78703
78689
78711
78705
78693
78705
78693
78659
78620
78587
78567
78570
78581
78593
78585
78618
78620
78622
78665
78650
78656
78650
78655
78646
78649
78659
78667
78656
78680
78669
78704
78694
78690
78673
78660
78609
78571
78550
78559
78556
78574
78567
78612
78610
78630
78660
78654
78652
78653
78673
78660
78663
78676
78686
78673
78687
78701
78710
78719
78730
78707
78665
78624
78593
78609
78585
78601
78607
78641
78673
78678
78697
78715
78698
78740
78710
78711
78723
78735
78738
78760
78746
78763
78767
78775
78774
78773
78747
78714
78669
78664
78672
78668
78687
78689
78710
78718
78721
78734
78747
78748
78732
78747
78750
78765
78764
78764
78756
78734
78774
78794
78771
78781
78776
78773
78718
78628
78618
78629
78607
78630
78645
78641
78668
78692
78687
78705
78712
78708
78710
78736
78716
78719
78741
78750
78734
78754
78756
78756
78757
78757
78771
78760
78702
78675
78651
78632
78629
78636
78640
78651
78643
78665
78673
78683
78681
78692
78689
78691
78675
78683
78708
78710
78733
78702
78721
78713
78720
78719
78728
78723
78688
78640
78609
78590
78590
78587
78599
78614
78621
78638
78654
78669
78671
78662
78680
78686
78697
78680
78692
78693
78693
78705
78683
78697
78723
78715
78699
78649
78611
78591
78602
78582
78584
78582
78619
78633
78627
78626
78665
78652
78647
78649
78649
78661
78669
78672
78665
78671
78643
78683
78680
78692
78680
78637
78562
78561
78551
78552
78547
78544
78555
78594
78611
78613
78619
78639
78611
78642
78660
78664
78636
78663
78654
78685
78686
78705
78686
78704
78692
78684
78620
78582
78558
78530
78547
78547
78554
78581
78587
78609
78618
78632
78645
78628
78659
78646
78653
78669
78641
78640
78674
78696
78706
78690
78695
78704
78675
78614
78602
78580
78579
78580
78597
78598
78619
78626
78641
78669
78695
78683
78698
78677
78677
78693
78689
78710
78700
78684
78716
78711
78718
78724
78734
78739
78700
78664
78603
78605
78585
78610
78597
36233
78637
78626
78665
78667
78686
78695
78653
78682
78674
78686
78686
78658
78699
78690
78685
78683
78711
78707
78725
78692
78653
78615
78592
78571
78572
78597
78596
78618
78622
78652
78655
78659
78682
78677
78677
78677
78684
78680
78697
78699
78700
78703
78713
78739
78726
78729
78693
78671
78636
78610
78619
78618
78652
78643
78652
78684
78699
78701
78729
78705
78733
78723
78730
78748
78752
78753
78751
78757
78755
78779
78777
78782
78733
78700
78646
78630
78629
78635
78631
78661
78659
78653
78695
78713
78720
78711
78712
78715
78726
78722
78728
78734
78758
78739
78756
78755
78774
78768
78757
78701
78651
78619
78611
78630
78629
78623
78647
78664
78683
78681
78718
78696
78703
78705
78701
78733
78713
78721
78699
78728
78727
78757
78759
78772
78753
78752
78723
78691
78634
78607
78602
78606
78614
78638
78632
78656
78666
78669
78682
78662
78664
78679
78688
78693
78692
78715
78701
78719
78708
78721
78709
78732
78724
78708
78693
78639
78590
78571
78562
78567
78559
78584
78594
78596
78617
78626
78643
78636
78627
78641
78642
78625
78649
78632
78645
78644
78652
78646
78668
78659
78672
78640
78578
78543
78528
78519
78504
78529
78557
78543
78564
78575
78602
78588
78606
78632
78620
78610
78633
78619
78630
78658
78647
78660
78674
78691
78696
78684
78618
78571
78555
78540
78539
78579
78577
78603
78605
78650
78638
78643
78646
78655
78674
78676
78684
78668
78702
78689
78679
78695
78704
78722
78714
78733
78686
78659
78610
78588
78595
78582
78606
78602
78627
78652
78659
78661
78675
78681
78680
78682
78709
78706
78717
78731
78701
78713
78726
78720
78741
78733
78725
78721
78667
78607
78589
78579
78584
78595
78610
78615
78641
78658
78679
78678
78695
78687
78689
78688
78691
78697
78702
78710
78693
78700
78731
78719
78732
78716
78737
78715
78662
78638
78579
78591
78573
78562
78577
78577
78614
78610
78624
78630
78646
78651
78642
78644
78652
78656
78656
78657
78650
78672
78661
78652
78679
78662
78668
78639
78599
78562
78530
78518
78505
78532
78553
78553
78578
78590
78611
78614
78627
78631
78638
78634
78628
78640
78652
78662
78654
78664
78670
78679
78675
78692
78696
78637
78611
78564
78554
78563
78554
78574
78598
78606
78637
78664
78651
78665
78659
78651
78676
78652
78677
78680
78696
78682
78687
78714
78722
78715
78747
78716
78690
78641
78576
78585
78576
78592
78597
78602
78625
78634
78666
78664
78670
78686
78692
78686
78683
78695
78690
78703
78714
78716
78715
78724
78718
78742
78753
78719
78684
78651
78602
78584
78586
78607
78608
78622
78627
78647
78661
78684
78687
78692
78683
78678
78711
78693
78723
78713
78713
78720
78748
78737
78749
78742
78747
78765
78722
78683
78641
78613
78604
78622
78642
78633
78671
78663
78678
78699
78709
78723
78698
78735
78709
78722
78735
78749
78723
78735
78738
78764
78756
78751
78774
78752
78737
78696
78640
78608
78577
78613
78616
78618
78623
78622
78647
78673
78676
78673
78709
78692
78690
78704
78704
78698
78720
78723
78714
78730
78742
78739
78731
78729
78708
78646
78615
78582
78570
78585
78602
78597
78622
78626
78630
78653
78651
78675
78665
78666
78671
78673
78686
78694
78705
78700
78708
78709
78722
78732
78729
78711
78672
78634
78578
78589
78569
78607
78596
78628
78641
78663
78662
78676
78681
78674
78702
78682
78678
78694
78701
78699
78717
78718
78749
78735
78742
78759
78735
78677
78619
78614
78608
78594
78587
78617
78626
78631
78658
78663
78692
78702
78705
78705
78716
78696
78729
78702
78716
78730
78731
78748
78748
78748
78760
78740
78758
78687
78621
78604
78603
78600
78593
78600
78619
78624
78658
78651
78686
78681
78687
78690
78714
78679
78707
78711
78695
78722
78716
78744
78741
78748
78735
78740
78742
78692
78624
78592
78571
78574
78554
78598
78610
78609
78617
78636
78648
78657
78660
78646
78651
78667
78647
78658
78652
78672
78665
78663
78679
78670
78704
78685
78665
78633
78584
78562
78540
78524
78541
78549
78544
78576
78581
78603
78614
78625
78620
78614
78625
78611
78628
78633
78631
78645
78638
78654
78667
78672
78668
78657
78648
78587
78557
78512
78513
78521
78536
78529
78544
78557
78587
78591
78618
78603
78626
78629
78636
78630
78652
78651
78661
78677
78685
78685
78680
78684
78704
78654
78592
78582
78553
78552
78558
78553
78567
78581
78595
78610
78643
78642
78639
78669
78654
78651
78663
78697
78664
78692
78690
78695
78706
78710
78717
78718
78707
78654
78608
78570
78565
78568
78571
78589
78595
78623
78637
78649
78669
78668
78682
78678
78685
78667
78661
78673
78689
78700
78694
78707
78710
78722
78722
78723
78705
78646
78603
78574
78571
78571
78594
78612
78624
78639
78633
78661
78678
78671
78686
78684
78672
78701
78685
78697
78696
78708
78703
78716
78716
78720
78735
78718
78684
78642
78603
78567
78553
78546
66136
78572
78585
78606
78596
78626
78627
78608
78636
78621
78640
78635
78626
78638
78663
78643
78633
78657
78646
78661
78673
78666
78641
78600
78548
78520
78504
78520
78540
78544
78573
78570
78582
78598
78609
78609
78650
78657
78655
78639
78668
78662
78667
78677
78692
78697
78700
78718
78740
78747
78680
78615
78599
78575
78586
78584
78591
78608
78629
78637
78659
78673
78692
78702
78685
78728
78702
78738
78728
78749
78718
78738
78757
78771
78762
78788
78775
78764
78698
78644
78629
78625
78624
78637
78648
78672
78668
78686
78708
78699
78732
78724
78740
78729
78746
78758
78741
78754
78767
78778
78783
78789
78779
78802
78795
78787
78726
78672
78632
78635
78649
78643
78661
78651
78656
78692
78682
78709
78717
78723
78715
78710
78720
78727
78716
78749
78747
78733
78756
78735
78754
78741
78775
78766
78719
78674
78621
78622
78598
78603
78617
78599
78639
78629
78656
78679
78705
78686
78694
78689
78678
78670
78668
78677
78693
78690
78696
78696
78708
78723
78713
78715
78706
78660
78611
78565
78545
78560
78557
78550
78579
78599
78605
78616
78640
78636
78644
78650
78649
78665
78667
78668
78669
78701
78676
78693
78697
78709
78720
78742
78712
78665
78612
78593
78563
78563
78571
78593
78586
78625
78633
78635
78656
78667
78664
78660
78677
78665
78655
78681
78694
78671
78683
78699
78699
78715
78732
78743
78693
78648
78595
78566
78568
78571
78572
78569
78600
78613
78626
78638
78646
78651
78656
78671
78670
78687
78649
78679
78683
78689
78681
78683
78689
78695
78718
78718
78691
78631
78580
78569
78544
78554
78572
78546
78597
78607
78622
78636
78654
78654
78642
78649
78648
78632
78670
78651
78663
78664
78680
78688
78673
78686
78696
78705
78687
78644
78591
78558
78507
78520
78526
78551
78550
78564
78572
78581
78605
78609
78599
78613
78618
78608
78612
78602
78611
78617
78621
78635
78642
78651
78655
78654
78632
78598
78548
78524
78528
78516
78525
78533
78548
78553
78597
78605
78605
78611
78601
78617
78603
78620
78645
78626
78644
78647
78662
78687
78675
78684
78696
78691
78688
78619
78559
78544
78557
78561
78559
78567
78593
78628
78614
78643
78644
78640
78645
78672
78654
78665
78684
78680
78693
78677
78697
78708
78701
78698
78726
78710
78663
78615
78572
78559
78563
78553
78570
78570
78593
78614
78615
78628
78662
78649
78658
78660
78645
78662
78671
78668
78689
78700
78705
78702
78699
78750
78712
78713
78686
78639
78594
78560
78552
78549
78556
78572
78567
78580
78590
78607
78609
78617
78618
78599
78601
78624
78616
78614
78649
78637
78634
78634
78663
78661
78671
78663
78624
78586
78554
78534
78514
78519
78517
78534
78532
78550
78584
78589
78595
78610
78598
78624
78603
78599
78634
78626
78628
78633
78632
78650
78653
78649
78654
78668
78632
78567
78555
78523
78520
78517
78537
78553
78584
78584
78606
78632
78641
78649
78639
78642
78655
78653
78661
78673
78690
78700
78733
78725
78725
78725
78724
78710
78663
78630
78597
78579
78599
78602
78601
78617
78636
78638
78681
78693
78713
78706
78693
78710
78707
78694
78719
78735
78724
78736
78738
78746
78750
78764
78758
78714
78670
78620
78626
78605
78623
78615
78630
78641
78680
78688
78709
78714
78713
78717
78734
78734
78722
78720
78734
78735
78759
78749
78787
78770
78781
78792
78768
78707
78667
78641
78619
78643
78644
78648
78655
78668
78692
78710
78705
78723
78737
78727
78742
78727
78727
78754
78747
78729
78741
78746
78771
78761
78771
78785
78761
78698
78651
78618
78627
78612
78638
78628
78658
78690
78684
78700
78727
78701
78701
78710
78691
78707
78707
78724
78719
78714
78716
78721
78732
78736
78742
78703
78660
78623
78610
78583
78603
78599
78623
78616
78624
78647
78655
78673
78673
78664
78683
78665
78686
78690
78686
78717
78699
78725
78732
78737
78733
78733
78701
78650
78611
78574
78593
78616
78627
78621
78656
78644
78683
78691
78708
78702
78709
78722
78710
78725
78732
78726
78737
78741
78735
78740
78742
78744
78724
78675
78628
78589
78588
78603
78594
78633
78612
78637
78669
78666
78682
78726
78686
78718
78720
78702
78715
78727
78732
78716
78762
78745
78753
78743
78762
78752
78684
78628
78626
78609
78589
78603
78620
78633
78665
78670
78701
78672
78693
78698
78699
78696
78713
78709
78714
78721
78710
78735
78737
78729
78739
78756
78718
78682
78624
78601
78572
78586
78587
78601
78611
78611
78644
78636
78662
78663
78657
78654
78654
78651
78633
78646
78652
78673
78691
78683
78688
78703
78694
78681
78638
78590
78561
78555
78568
78575
78572
78580
78610
78592
78630
78615
78629
78617
78624
78629
78613
78623
78618
78624
78632
78620
78607
78626
78627
78628
78594
78596
78499
78496
78470
78487
78503
78493
78522
78536
78563
78565
78580
78575
78613
78619
78600
78615
78618
78633
78632
78664
78646
78664
78678
78663
78654
78614
78550
78528
78543
78533
78529
78554
78569
78586
78610
78612
78637
78636
78633
78645
78656
78655
78653
78675
78674
78686
78697
78702
78708
78723
78707
78658
78605
78587
78564
78567
78579
78573
78588
78609
78643
78634
78666
78700
78660
78685
78670
78656
78669
78682
78687
78690
78700
78708
78691
78703
78712
78685
78643
78581
78570
78532
78543
78550
78556
78594
78579
78601
78611
78632
78619
78628
78635
78633
78648
78636
78627
78645
78645
78666
78645
78655
78664
78661
78635
78586
78543
78496
78494
78501
78492
78500
78524
78537
78540
78562
78598
78561
78570
78553
78562
78564
78562
78558
78572
78588
78591
78597
78602
78587
78604
78587
78538
78495
78474
78435
78431
78456
78486
78476
78499
78514
78526
78519
78544
78538
78541
78546
78549
78551
78578
78592
78574
78581
78600
78617
78605
78613
78591
78544
78528
78489
78505
78489
78513
78517
78510
78559
78586
78579
78609
78617
78602
78601
78611
78635
78636
78635
78628
78641
78635
78658
78661
78681
78650
78624
78570
78536
78504
78520
78546
78538
78547
78567
78602
78611
78620
78646
78639
78633
78638
78650
78664
78660
78657
78683
78676
78679
78699
78694
78697
78692
78630
78565
78555
78544
78554
78550
78566
78577
78593
78596
78620
78641
78657
78628
78642
78631
78637
78643
78634
78663
78665
78658
78667
78667
78688
78677
78671
78642
78607
78543
78530
78537
78528
78557
78545
78554
78558
78583
78607
78606
78601
78612
78596
78604
78601
78601
78637
78620
78621
78644
78638
78637
78629
78647
78649
78595
78553
78520
78502
