79048
79002
79041
79059
79071
79084
79096
79097
79094
79125
79126
79144
79132
79107
79071
79052
79050
79066
79075
79081
79096
79131
79121
79123
79130
79157
79140
79143
79141
79156
79144
79133
79075
79033
79015
79018
79025
79041
79047
79041
79043
79060
79068
79058
79069
79080
79089
44964
44929
44932
44969
45014
45051
45053
45054
45039
45043
45034
45001
44989
44992
44965
44944
44924
44884
44874
44861
44847
44869
44859
44861
44825
44769
44714
44646
44612
44562
44514
44489
60593
79199
79192
79199
79208
79194
79173
79160
79140
79127
79136
79129
79162
79176
79208
79219
79224
79245
44704
44660
44630
44614
44619
44631
44616
44674
44699
44718
44703
44701
44680
44657
44622
44626
44631
44589
44601
44598
44604
44591
44591
44561
44584
44615
44681
44698
44731
44721
44711
44687
79300
79307
79327
79314
79319
79337
79337
79341
79345
79342
79361
79345
79309
79279
79277
79285
79277
45719
44774
44728
44710
44684
44640
44653
44615
44588
44547
44526
44478
44487
44532
44565
44608
44590
44628
44629
44614
44572
44493
44380
44260
44165
44112
44055
44002
43991
43982
44029
44077
44143
78993
78982
78980
78959
78947
78905
78934
78905
78935
78990
78989
79016
79032
79060
79077
79087
79096
79079
79047
79051
79065
79109
79134
79144
79185
79193
79215
79231
79250
79258
79261
79278
79281
79266
79260
79234
79208
79192
79202
79212
79220
79239
79266
79295
79323
79332
79353
79350
79351
79350
79358
79369
79385
79382
79372
79362
79354
79345
79355
79390
79452
79445
79454
79475
79467
79487
79487
79503
79524
79493
79472
79455
79419
79405
79411
79397
79428
79440
79429
79461
79480
79483
79514
79501
79510
79521
79525
79511
79533
79501
79455
79442
79436
79476
79473
79483
79522
79553
79591
79623
79613
79612
79584
79584
79509
79455
79435
79375
79315
79277
79251
79257
79234
79220
79241
79270
79260
79295
79310
79345
79363
79362
79391
79390
79371
79323
79293
79276
79244
79235
79226
79227
79249
79276
79280
79306
79321
79341
79361
79363
79381
79388
79390
79351
79328
79299
79285
79283
79309
79289
79333
79364
79386
79389
79397
79421
79423
79409
79447
79450
79447
79411
79383
79360
79362
79332
79341
79376
79393
79412
79426
79433
79457
79461
79465
79477
79484
79502
79480
79450
79399
79381
79365
79387
79394
79389
79414
79419
79419
79439
79437
79441
79433
79434
79430
79452
79445
79436
79406
79379
79357
79355
79362
79375
79385
79408
79402
79444
79438
79428
79434
79450
79463
79483
79470
79487
79467
79421
79407
79384
79405
79398
79421
79436
79427
79461
79493
79500
79505
79523
79539
79557
79562
79540
79539
79488
79480
79496
79491
79499
79529
79521
79556
79559
79582
79590
79594
79583
79592
79599
79602
79583
79547
79504
79484
79495
79490
79526
79525
79524
79513
79539
79532
79534
79543
79518
79521
79523
79504
79524
79525
79527
79511
79547
79558
79600
79650
79654
79613
79600
79544
79542
79531
79544
79550
79550
79528
79518
79478
79444
79428
79420
79433
79438
79468
79465
79455
79440
79433
79417
79376
79399
79413
79428
79450
79455
79481
79483
79470
79474
79488
79490
79485
79496
79505
79527
79529
79504
79509
79532
79523
79466
79412
79363
79339
79335
79343
79350
79360
79370
79384
79388
79395
79383
79374
79357
79348
79347
79282
79179
79129
79072
79010
78961
78906
78874
78811
78724
78652
78563
78465
78393
78321
78267
78253
78184
78114
78065
78052
78065
78087
78132
78149
78178
78226
78251
78271
78283
78297
78337
78442
78460
78401
78304
78247
78259
78243
78249
78270
78285
78350
78366
78409
78438
78447
78474
78505
78524
78552
78528
78475
78413
78402
78413
78410
78447
78491
78522
78524
78557
78556
78561
78561
78574
78552
78519
78457
78362
78284
78203
78137
78135
78151
78192
78150
78154
78176
78172
78183
78157
78152
78321
79559
79871
79990
80108
80082
80022
79866
79740
79624
79548
79454
79310
79223
79191
79157
79208
79209
78897
78532
77919
77025
76363
75989
75855
75790
75786
75842
75881
75907
75926
75967
76048
76080
76274
76771
77357
77654
77948
78068
78181
78610
78556
77734
77941
78574
77892
78271
78522
79013
79500
80227
80451
80238
80374
80260
78995
78722
78790
76676
77468
76892
76702
76644
76677
76687
76705
76744
76741
76756
76762
76784
76816
76817
76861
76882
76881
76815
76786
76821
76857
76882
76920
76977
77036
77100
77143
77165
77190
77209
77219
77236
77282
77307
77300
77301
77227
77172
77159
77162
77183
77196
77212
77239
77263
77264
77272
77295
77296
77316
77315
77349
77377
77374
77429
77432
77368
77320
77295
77305
77320
77366
77381
77401
77441
77496
77492
77495
77510
77535
77537
77551
77553
77562
77564
77592
77557
77492
77438
77432
77436
77423
77421
77434
77462
77496
77482
77459
77445
77443
77429
77447
77487
77527
77560
77577
77596
77556
77487
77432
77434
77420
77422
77439
77470
77484
77529
77536
77550
77566
77568
77545
77536
77517
77530
77515
77576
77541
77535
77472
77388
77365
77392
77396
77419
77445
77467
77512
77533
77542
77537
77549
77564
77576
77589
77626
77608
77621
77641
77671
77691
77660
77573
77535
77496
77513
77523
77556
77556
77594
77636
77655
77652
77646
77637
77669
77674
77662
77716
77700
77695
77718
77735
77703
77632
77561
77551
77544
77578
77553
77575
77611
77626
77647
77639
77652
77647
77653
77692
77699
77735
77762
77771
77770
77774
77694
77594
77540
77507
77503
77495
77516
77515
77550
77575
77569
77588
77578
77626
77614
77624
77627
77660
77675
77693
77705
77669
77596
77564
77543
77560
77560
77573
77587
77633
77654
77665
77684
77705
77718
77705
77735
77734
77745
77755
77775
77789
77809
77796
77756
77670
77628
77639
77634
77635
77660
77670
77690
77706
77729
77755
77742
77760
77768
77774
77793
77798
77810
77825
77856
77860
77903
77904
77917
77867
77812
77753
77758
77782
77782
77795
77847
77882
77884
77912
77931
77922
77933
77968
77989
77999
78020
78017
78029
78018
78021
78026
78024
77968
77883
77862
77829
77864
77845
77873
77891
77909
77927
77948
77933
77957
77954
77956
77968
77998
78007
78022
78023
78036
78055
78008
77942
77885
77860
77873
77883
77920
77925
77953
77960
77975
77987
77983
77964
77962
77976
77994
78030
78043
78062
78081
78092
78085
77990
77966
77940
77940
77947
77962
77987
78013
78036
78044
78046
78062
78085
78088
78088
78107
78110
78116
78117
78133
78142
78144
78062
77990
77972
77947
77933
77941
77953
77979
77987
77994
78008
77996
77999
78002
77977
78007
77992
78004
77992
78077
78139
78167
78163
78158
78126
78118
78096
78059
78031
78017
77950
77945
77937
77924
77924
77938
77959
77985
77919
77902
77891
77914
77901
77883
77898
77942
77960
77975
78020
77991
78017
78035
78048
78056
78101
78095
78119
78141
78152
78182
78188
78188
78211
78213
78228
78219
78187
78091
78066
78042
78032
78050
78028
78062
78091
78095
78117
78123
78160
78155
78187
78170
78204
78219
78233
78234
78254
78245
78276
78279
78277
78282
78294
78297
78286
78217
78173
78147
78164
78168
78163
78189
78188
78219
78248
78253
78294
78273
78298
78307
78321
78334
78336
78358
78364
78373
78390
78404
78410
78418
78423
78449
78413
78317
78293
78279
78288
78290
78302
78316
78366
78356
78393
78413
78431
78411
78423
78439
78448
78450
78490
78490
78478
78492
78516
78512
78477
78435
78372
78348
78345
78336
78360
78345
78392
78395
78425
78450
78448
78462
78452
78471
78457
78468
78484
78495
78498
78502
78493
78463
78381
78318
78292
78281
78295
78302
78296
78300
78341
78340
78358
78337
78366
78355
78372
78396
78408
78388
78404
78416
78415
78417
78424
78388
78316
78285
78254
78261
78274
78292
78286
78317
78312
78308
78316
78317
78350
78317
78339
78341
78359
78382
78382
78406
78421
78459
78443
78417
78366
78321
78277
78291
78311
78325
78315
78342
78357
78364
78379
78354
78351
78371
78360
78390
78397
78395
78410
78414
78423
78447
78416
78360
78312
78288
78279
78300
78288
78323
78333
78345
78359
78372
78383
78389
78369
78369
78343
78346
78346
78354
78355
78390
78423
78425
78423
78373
78310
78294
78290
78302
78296
78307
78300
78326
78349
78326
78337
78355
78381
78366
78353
78381
78403
78388
78409
78408
78393
78431
78437
78427
78381
78291
78254
78218
78205
78201
78234
78237
78262
78277
78281
78289
78284
78266
78260
78232
78203
78242
78191
78228
78242
78244
78236
78245
78262
78243
78212
78132
78124
78112
78121
78162
78170
78202
78247
78263
78314
78316
78331
78346
78336
78338
78331
78300
78273
78216
78113
77951
77096
76226
75038
76529
75683
76025
76289
76433
76551
76665
76815
77058
77220
77259
77282
77294
77271
77257
77195
77172
77155
77132
77133
77030
76973
76860
76644
76499
76418
76344
76312
76304
76227
76268
76304
76355
76357
76364
76396
76419
76446
76512
76590
76703
76738
76787
76759
76734
76698
76669
76544
76388
76314
76244
76217
76198
76246
76266
76287
76337
76324
76330
76299
76292
76268
76255
76257
76307
76356
76382
76377
76396
76403
76429
76413
76340
76268
76189
76143
76173
76181
76215
76255
76315
76356
76413
76440
76494
76555
76603
76659
76649
76635
76641
76632
76665
76641
76645
76640
76636
76574
76493
76377
76326
76314
76317
76334
76356
76379
76411
76430
76450
76429
76417
76393
76408
76402
76425
76436
76422
76454
76447
76418
76399
76370
76309
76169
76020
75921
75874
75866
75863
75931
76020
76115
76170
76304
76334
76370
76392
76445
76467
76488
76489
76485
76517
76582
76679
76725
76734
76672
76605
76576
76570
76610
76616
76634
76690
76729
76725
76768
76758
76786
76787
76810
76803
76792
76767
76770
76732
76699
76715
76645
76583
76490
76413
76338
76297
76314
76283
76230
76196
76134
76051
75944
75875
75829
75832
75796
75787
75791
75762
75753
75743
75738
75774
75766
75776
75834
75970
76093
76181
76236
76282
76342
76391
76440
76460
76485
76421
76402
76390
76416
76408
76398
76392
76367
76365
76373
76377
76404
76355
76194
76070
76010
75958
75931
75949
75995
76077
76131
76167
76197
76219
76260
76251
76262
76320
76395
76423
76425
76449
76461
76430
76423
76410
76352
76259
76162
76160
76174
76232
76300
76369
76414
76463
76554
76611
76682
76692
76712
76683
76702
76683
76708
76728
76722
76701
76719
76730
76636
76348
75868
75391
75041
74861
74698
74670
74795
75006
75240
75486
75742
75897
75989
76129
76139
76133
76123
76144
76162
76169
76198
76201
76195
76191
76192
76146
76060
76001
75998
75996
76013
76031
76071
76134
76191
76238
76280
76283
76284
76294
76321
76348
76356
76382
76386
76399
76415
76418
76403
76361
76254
76164
76152
76163
76166
76231
76262
76279
76318
76370
76389
76402
76412
76425
76457
76465
76480
76510
76537
76556
76607
76624
76640
76562
76493
76463
76453
76469
76510
76555
76610
76665
76710
76770
76801
76824
76865
76894
76941
76977
77012
77025
77070
77084
77086
77121
77101
76989
76904
76848
76854
76825
76843
76868
76904
76975
77013
77040
77083
77115
77142
77153
77166
77188
77188
77221
77240
77260
77296
77295
77329
77284
77196
77112
77072
77073
77080
77079
77117
77162
77203
77225
77247
77240
77270
77268
77267
77298
77295
77319
77318
77320
77333
77340
77318
77206
77077
76935
76792
76613
76526
76535
76540
76623
76677
76778
76855
76884
76870
76839
76852
76823
76824
76828
76848
76851
76870
76889
76927
76943
76866
76742
76665
76621
76634
76619
76609
76634
76676
76720
76733
76760
76764
76782
76785
76785
76817
76837
76844
76850
76870
76887
76899
76931
76906
76809
76674
76603
76581
76585
76569
76621
76630
76738
76845
76904
76988
77028
77049
77090
77124
77128
77115
77132
77140
77162
77141
77162
77204
77228
77231
77135
77036
76981
76962
76953
76952
77000
77009
77072
77152
77176
77211
77201
77205
77233
77237
77268
77265
77313
77319
77333
77319
77357
77343
77352
77358
77273
77209
77152
77153
77139
77152
77176
77215
77251
77262
77278
77270
77236
77209
77212
77210
77174
77180
77171
77190
77216
77236
77256
77287
77240
77167
77062
76993
76964
76939
76973
76994
77072
77166
77195
77230
77265
77295
77342
77393
77453
77516
77581
77646
77701
77784
77818
77872
77910
77873
77818
77736
77707
77763
77775
77770
77805
77846
77859
77900
77911
77889
77883
77900
77909
77914
77918
77944
77956
77990
77994
78004
78027
77987
77951
77882
77846
77805
77809
77842
77874
77903
77951
77978
78059
78103
78114
78153
78188
78235
78266
78306
78311
78348
78350
78408
78427
78440
78459
78418
78349
78291
78271
78276
78279
78316
78325
78353
78405
78413
78464
78459
78455
78456
78455
78449
78455
78502
78483
78498
78483
78484
78511
78530
78536
78527
78457
78355
78302
78318
78307
78306
78325
78288
78295
78336
78342
78379
78370
78385
78389
78373
78410
78428
78439
78462
78486
78550
78614
78716
78777
78781
78805
78870
78774
78644
78634
78615
78644
78671
78711
78775
78724
78714
78666
78633
78642
78555
78521
78478
78539
78651
78811
78865
78909
78983
78966
78987
79022
78992
78983
78892
78848
78851
78916
79022
79048
79110
79225
79275
79326
79326
79413
79500
79536
79530
79550
79546
79510
79501
79511
79531
79557
79546
79595
79558
79518
79427
79377
79351
79383
79383
79391
79411
79445
79453
79480
79506
79483
79511
79491
79490
79492
79496
79487
79472
79459
79438
79454
79454
79421
79367
79294
79243
79228
79220
79215
79211
79230
79213
79245
79285
79281
79266
79247
79246
79234
79241
79236
79254
79290
79298
79304
79327
79341
79371
79334
79259
79228
79194
79179
79146
79164
79180
79178
79198
79224
79241
79245
79277
79229
79222
79209
79212
79192
79186
79191
79190
79203
79195
79222
79224
79239
79222
79167
79077
79082
79044
79081
79078
79117
79123
79103
79163
79143
79151
79168
79170
79187
79176
79153
79131
79113
79126
79132
79136
79141
79119
79118
79146
79109
79116
79046
78982
78960
78937
78948
78928
78974
78978
78988
79008
79027
79025
79040
79061
79077
79063
79072
79114
79106
79115
79110
79102
79095
79101
79132
79153
79121
79078
79014
79015
79026
79035
79032
79005
78967
78984
79000
79007
79028
79026
79019
79030
79040
79054
79059
79076
79094
79089
79075
79078
79093
79056
78994
78929
78900
78886
78872
78878
78897
78921
78923
78931
78943
78937
78947
78940
78933
78922
78933
78940
78943
78925
78933
78937
78939
78951
78922
78882
78826
78794
78766
78766
78779
78765
78800
78812
78843
78865
78868
78854
78845
78843
78801
78807
78789
78755
78702
78656
78599
78524
78482
78466
78397
78312
78194
78084
78023
77872
77720
77632
77560
77564
77458
77340
77165
77004
76929
76958
76995
76758
76484
76217
75993
75873
75756
75840
75830
75622
75864
75927
75863
75736
75585
75520
75953
75983
76266
76607
76927
77403
77705
77887
77919
78179
78267
78123
78004
77982
78293
78537
78852
78962
78716
78557
78460
78597
78523
78646
78581
78463
78335
78234
78150
78213
78170
78089
77828
77750
77686
77793
77643
77319
77110
77041
76910
76899
77277
77546
77667
77633
77747
77812
77814
77638
77501
77934
78184
78101
77681
77515
77328
77225
77191
77269
77326
77360
77423
77494
77571
77579
77526
77530
77488
77495
77536
77484
77474
77366
77320
77274
77224
77160
77134
77158
77176
77248
77312
77368
77416
77414
77424
77458
77490
77492
77492
77522
77510
77505
77521
77541
77579
77585
77589
77507
77475
77489
77469
77434
77449
77547
77594
77642
77678
77703
77772
77816
77823
77834
77842
77832
77832
77831
77834
77810
77838
77825
77846
77782
77758
77751
77766
77800
77821
77878
77909
77967
77978
77992
78013
78041
78057
78055
78073
78098
78097
78132
78140
78163
78163
78174
78181
78152
78090
78060
78028
78002
77995
78008
78012
78081
78080
78095
78121
78119
78115
78114
78137
78139
78159
78185
78178
78175
78191
78201
78209
78208
78194
78154
78144
78167
78170
78201
78210
78227
78256
78268
78266
78279
78276
78261
78293
78298
78322
78334
78344
78359
78359
78371
78396
78376
78411
78374
78343
78325
78342
78334
78384
78379
78415
78424
78443
78453
78474
78472
78491
78476
78507
78514
78535
78552
78551
78585
78593
78599
78576
78542
78515
78513
78526
78543
78553
78575
78555
78598
78609
78623
78635
78621
78653
78643
78651
78672
78686
78673
78681
78687
78717
78702
78693
78674
78632
78614
78623
78614
78627
78665
78680
78659
78677
78696
78708
78706
78734
78726
78754
78771
78791
78821
78811
78814
78815
78817
78808
78820
78799
78755
78670
78645
78629
78620
78603
78622
78623
78638
78643
78683
78667
78693
78682
78684
78673
78695
78695
78703
78703
78708
78715
78699
78737
78727
78723
78729
78705
78679
78648
78641
78627
78722
78791
78805
78837
78840
78848
78846
78842
78824
78787
78804
78801
78803
78804
78801
78789
78800
78790
78776
78805
78797
78816
78766
78743
78683
78706
78709
78706
78716
78738
78727
78742
78760
78774
78775
78759
78773
78759
78768
78762
78767
78756
78800
78786
78791
78789
78768
78784
78709
78673
78664
78653
78680
78675
78686
78691
78715
78733
78751
78758
78767
78754
78776
78790
78778
78789
78787
78809
78821
78834
78840
78863
78827
78779
78750
78749
78728
78739
78736
78739
78754
78776
78785
78785
78767
78778
78776
78780
78784
78760
78769
78808
78800
78817
78800
78819
78819
78829
78803
78787
78717
78696
78698
78697
78726
78725
78735
78724
78749
78782
78776
78789
78783
78787
78791
78803
78810
78805
78810
78807
78807
78819
78821
78831
78849
78841
78846
78817
78786
78754
78732
78734
78721
78742
78741
78738
78787
78787
78796
78756
78747
78765
78764
78794
78801
78809
78799
78793
78805
78790
78789
78771
78764
78782
78798
78768
78767
78754
78676
78653
78622
78637
78640
78634
78669
78687
78686
78711
78700
78702
78690
78697
78675
78694
78685
78702
78689
78700
78701
78700
78683
78714
78723
78701
78655
78615
78590
78592
78574
78578
78587
78619
78603
78642
78640
78643
78641
78652
78658
78641
78676
78662
78675
78675
78678
78668
78672
78699
78715
78679
78648
78578
78565
78563
78555
78564
78582
78604
78610
78625
78635
78651
78672
78650
78654
78674
78668
78672
78699
78705
78696
78703
78730
78736
78725
78681
78657
78607
78610
78602
78604
78616
78627
78629
78642
78674
78658
78684
78661
78668
78686
78698
78703
78682
78712
78707
78714
78708
78730
78728
78723
78697
78646
78615
78589
78606
78597
78594
78611
78644
78617
78643
78668
78669
78661
78680
78671
78688
78693
78713
78708
78694
78695
78694
78703
78707
78694
78707
78691
78645
78610
78571
78578
78575
78587
78596
78598
78624
78616
78632
78653
78628
78642
78654
78634
78650
78663
78672
78673
78678
78668
78690
78680
78681
78713
78689
78663
78608
78591
78600
78577
78582
78591
78600
78621
78641
78660
78663
78677
78683
78670
78672
78677
78697
78701
78685
78708
78722
78721
78724
78727
78725
78688
78647
78615
78628
78630
78626
78665
78654
78663
78684
78689
78717
78719
78703
78695
78702
78716
78743
78742
78756
78753
78745
78783
78765
78766
78753
78704
78682
78654
78628
78642
78676
78655
78672
78688
78710
78711
78726
78742
78762
78758
78780
78769
78783
78770
78816
78831
78816
78817
78828
78820
78825
78765
78734
78721
78718
78710
78717
78719
78732
78737
78755
78767
78753
78763
78756
78747
78761
78766
78767
78754
78781
78768
78789
78781
78781
78775
78790
78782
78777
78725
78679
78658
78654
78633
78659
78655
78671
78684
78694
78707
78703
78727
78724
78716
78711
78725
78725
78705
78728
78732
78752
78754
78756
78772
78777
78774
78753
78712
78687
78684
78687
78682
78701
78730
78755
78777
78751
78785
78795
78779
78776
78788
78788
78793
78819
78802
78829
78817
78844
78810
78839
78856
78824
78782
78745
78732
78720
78738
78744
78749
78743
78786
78779
78788
78825
78803
78795
78809
78823
78842
78839
78846
78845
78848
78855
78870
78866
78866
78857
78841
78793
78779
78761
78768
78758
78788
78775
78787
78815
78815
78829
78854
78844
78850
78836
78850
78841
78880
78865
78868
78862
78863
78896
78880
78881
78899
78873
78835
78785
78760
78765
78776
78785
78796
78793
78803
78798
78829
78858
78848
78843
78832
78854
78854
78855
78845
78876
78887
78888
78863
78866
78878
78884
78857
78830
78770
78737
78701
78702
78700
78668
78683
78694
78700
78711
78695
78677
78667
78660
78675
78665
78653
78660
78649
78665
78662
78668
78663
78672
78697
78669
78610
78573
78569
78568
78551
78568
78556
78583
78566
78572
78618
78595
78603
78604
78616
78609
78635
78618
78643
78639
78659
78677
78682
78685
78683
78670
78625
78583
78577
78574
78606
78587
78607
78612
78633
78633
78661
78676
78671
78683
78678
78688
78685
78701
78741
78724
78730
78733
78753
78753
78760
78708
78667
78646
78657
78675
78678
78682
78703
78718
78736
78740
78744
78762
78742
78756
78749
78762
78765
78772
78784
78781
78797
78792
78793
78794
78797
78765
78716
78703
78687
78691
78698
78705
78723
78731
78766
78762
78763
78778
78775
78765
78768
78759
78781
78779
78764
78767
78783
78771
78775
78788
78781
78788
78773
78737
78717
78691
78669
78688
78669
78693
78688
78716
78724
78736
78747
78752
78753
78722
78764
78740
78744
78763
78765
78748
78774
78761
78778
78768
78787
78765
78762
78704
78654
78652
78645
78635
78651
78666
78665
78698
78708
78708
78729
78713
78726
78711
78726
78743
78730
78752
78746
78769
78775
78775
78781
78779
78781
78747
78700
78660
78677
78671
78697
78722
78714
78731
78737
78745
78751
78762
78776
78785
78765
78798
78798
78793
78790
78802
78797
78830
78815
78812
78809
78757
78711
78699
78674
78692
78695
78707
78720
78734
78750
78763
78768
78794
78793
78780
78784
78810
78813
78819
78815
78814
78830
78829
78831
78849
78836
78809
78792
78756
78743
78740
78733
78745
78754
78778
78770
78780
78793
78801
78793
78797
78819
78803
78824
78853
78813
78813
78812
78828
78847
78828
78839
78821
78814
78777
78724
78686
78678
78704
78698
78687
78697
78719
78717
78723
78740
78732
78732
78717
78735
78739
78747
78748
78753
78748
78743
78727
78754
78760
78730
78737
78703
78646
78610
78605
78604
78614
78615
78635
78637
78645
78673
78663
78653
78678
78684
78660
78654
78654
78674
78670
78671
78702
78686
78679
78690
78710
78681
78642
78580
78571
78583
78574
78569
78566
78587
78616
78631
78639
78656
78653
78661
78665
78669
78705
78665
78686
78695
78670
78710
78696
78702
78709
78679
78671
78608
78597
78581
78591
78600
78599
78625
78656
78649
78679
78692
78694
78700
78705
78718
78752
78739
78747
78747
78767
78764
78781
78794
78811
78782
78741
78698
78690
78688
78691
78699
78709
78716
78717
78741
78761
78764
78790
78766
78809
78785
78802
78797
78796
78798
78803
78809
78825
78828
78827
78852
78800
78753
78718
78713
78690
78715
78699
78712
78712
78718
78742
78744
78753
78751
78754
78747
78751
78754
78767
78755
78763
78767
78770
78794
78809
78797
78774
78764
78718
78695
78662
78652
78645
78652
78683
78686
78684
78705
78700
78695
78706
78688
78685
78703
78699
78690
78700
78699
78712
78699
78742
78715
78705
78707
78731
78680
78615
78594
78582
78581
78578
78585
78596
78609
78628
78629
78636
78628
78629
78620
78633
78629
78627
78655
78643
78655
78651
78645
78654
78659
78674
78665
78622
78603
78551
78545
78520
78532
78554
78583
78584
78590
78602
78615
78614
78611
78615
78615
78645
78646
78630
78657
78652
78649
78673
78689
78693
78689
78662
78625
78588
78570
78572
78606
78581
78599
78626
78632
78629
78645
78645
78673
78621
78622
78631
78635
78625
78639
78649
78656
78642
78678
78677
78670
78641
78588
78561
78554
78557
78552
78578
78596
78604
78599
78639
78634
78655
78634
78647
78655
78670
78671
78683
78668
78705
78703
78710
78720
78719
78716
78707
78656
78624
78617
78582
78594
78604
78607
78612
78625
78639
78643
78668
78642
78673
78646
78628
78661
78665
78652
78660
78664
78674
78679
78690
78673
78672
78681
78642
78579
78567
78549
78532
78561
78561
78552
78569
78593
78591
78605
78593
78585
78591
78600
78611
78613
78610
78637
78625
78621
78635
78623
78608
78636
78632
78593
78557
78520
78521
78504
78512
78529
78544
78556
78571
78574
78603
78596
78586
78595
78608
78613
78639
78620
78627
78637
78661
78658
78666
78681
78664
78645
78608
78564
78574
78554
78586
78585
78609
78609
78632
78644
78641
78686
78679
78681
78655
78697
78680
78703
78697
78711
78701
78731
78745
78728
78737
78687
78641
78607
78585
78607
78637
78651
78643
78651
78665
78681
78684
78692
78704
78702
78701
78698
78710
78713
78747
78705
78721
78749
78749
78731
78747
78718
78670
78618
78596
78608
78599
78628
78638
78629
78633
78651
78662
78671
78664
78666
78681
78677
78681
78677
78698
78686
78683
78701
78708
78705
78721
78710
78716
78661
78621
78593
78595
78578
78593
78619
78609
78623
78651
78654
78670
78691
78698
78676
78684
78662
78679
78689
78723
78699
78703
78689
78711
78705
78693
78705
78693
78659
78620
78587
78567
78570
78581
78593
78585
78618
78620
78622
78665
78650
78656
78650
78655
78646
78649
78659
78667
78656
78680
78669
78704
78694
78690
78673
78660
78609
78571
78550
78559
78556
78574
78567
78612
78610
78630
78660
78654
78652
78653
78673
78660
78663
78676
78686
78673
78687
78701
78710
78719
78730
78707
78665
78624
78593
78609
78585
78601
78607
78641
78673
78678
78697
78715
78698
78740
78710
78711
78723
78735
78738
78760
78746
78763
78767
78775
78774
78773
78747
78714
78669
78664
78672
78668
78687
78689
78710
78718
78721
78734
78747
78748
78732
78747
78750
78765
78764
78764
78756
78734
78774
78794
78771
78781
78776
78773
78718
78628
78618
78629
78607
78630
78645
78641
78668
78692
78687
78705
78712
78708
78710
78736
78716
78719
78741
78750
78734
78754
78756
78756
78757
78757
78771
78760
78702
78675
78651
78632
78629
78636
78640
78651
78643
78665
78673
78683
78681
78692
78689
78691
78675
78683
78708
78710
78733
78702
78721
78713
78720
78719
78728
78723
78688
78640
78609
78590
78590
78587
78599
78614
78621
78638
78654
78669
78671
78662
78680
78686
78697
78680
78692
78693
78693
78705
78683
78697
78723
78715
78699
78649
78611
78591
78602
78582
78584
78582
78619
78633
78627
78626
78665
78652
78647
78649
78649
78661
78669
78672
78665
78671
78643
78683
78680
78692
78680
78637
78562
78561
78551
78552
78547
78544
78555
78594
78611
78613
78619
78639
78611
78642
78660
78664
78636
78663
78654
78685
78686
78705
78686
78704
78692
78684
78620
78582
78558
78530
78547
78547
78554
78581
78587
78609
78618
78632
78645
78628
78659
78646
78653
78669
78641
78640
78674
78696
78706
78690
78695
78704
78675
78614
78602
78580
78579
78580
78597
78598
78619
78626
78641
78669
78695
78683
78698
78677
78677
78693
78689
78710
78700
78684
78716
78711
78718
78724
78734
78739
78700
78664
78603
78605
78585
78610
78597
36233
78637
78626
78665
78667
78686
78695
78653
78682
78674
78686
78686
78658
78699
78690
78685
78683
78711
78707
78725
78692
78653
78615
78592
78571
78572
78597
78596
78618
78622
78652
78655
78659
78682
78677
78677
78677
78684
78680
78697
78699
78700
78703
78713
78739
78726
78729
78693
78671
78636
78610
78619
78618
78652
78643
78652
78684
78699
78701
78729
78705
78733
78723
78730
78748
78752
78753
78751
78757
78755
78779
78777
78782
78733
78700
78646
78630
78629
78635
78631
78661
78659
78653
78695
78713
78720
78711
78712
78715
78726
78722
78728
78734
78758
78739
78756
78755
78774
78768
78757
78701
78651
78619
78611
78630
78629
78623
78647
78664
78683
78681
78718
78696
78703
78705
78701
78733
78713
78721
78699
78728
78727
78757
78759
78772
78753
78752
78723
78691
78634
78607
78602
78606
78614
78638
78632
78656
78666
78669
78682
78662
78664
78679
78688
78693
78692
78715
78701
78719
78708
78721
78709
78732
78724
78708
78693
78639
78590
78571
78562
78567
78559
78584
78594
78596
78617
78626
78643
78636
78627
78641
78642
78625
78649
78632
78645
78644
78652
78646
78668
78659
78672
78640
78578
78543
78528
78519
78504
78529
78557
78543
78564
78575
78602
78588
78606
78632
78620
78610
78633
78619
78630
78658
78647
78660
78674
78691
78696
78684
78618
78571
78555
78540
78539
78579
78577
78603
78605
78650
78638
78643
78646
78655
78674
78676
78684
78668
78702
78689
78679
78695
78704
78722
78714
78733
78686
78659
78610
78588
78595
78582
78606
78602
78627
78652
78659
78661
78675
78681
78680
78682
78709
78706
78717
78731
78701
78713
78726
78720
78741
78733
78725
78721
78667
78607
78589
78579
78584
78595
78610
78615
78641
78658
78679
78678
78695
78687
78689
78688
78691
78697
78702
78710
78693
78700
78731
78719
78732
78716
78737
78715
78662
78638
78579
78591
78573
78562
78577
78577
78614
78610
78624
78630
78646
78651
78642
78644
78652
78656
78656
78657
78650
78672
78661
78652
78679
78662
78668
78639
78599
78562
78530
78518
78505
78532
78553
78553
78578
78590
78611
78614
78627
78631
78638
78634
78628
78640
78652
78662
78654
78664
78670
78679
78675
78692
78696
78637
78611
78564
78554
78563
78554
78574
78598
78606
78637
78664
78651
78665
78659
78651
78676
78652
78677
78680
78696
78682
78687
78714
78722
78715
78747
78716
78690
78641
78576
78585
78576
78592
78597
78602
78625
78634
78666
78664
78670
78686
78692
78686
78683
78695
78690
78703
78714
78716
78715
78724
78718
78742
78753
78719
78684
78651
78602
78584
78586
78607
78608
78622
78627
78647
78661
78684
78687
78692
78683
78678
78711
78693
78723
78713
78713
78720
78748
78737
78749
78742
78747
78765
78722
78683
78641
78613
78604
78622
78642
78633
78671
78663
78678
78699
78709
78723
78698
78735
78709
78722
78735
78749
78723
78735
78738
78764
78756
78751
78774
78752
78737
78696
78640
78608
78577
78613
78616
78618
78623
78622
78647
78673
78676
78673
78709
78692
78690
78704
78704
78698
78720
78723
78714
78730
78742
78739
78731
78729
78708
78646
78615
78582
78570
78585
78602
78597
78622
78626
78630
78653
78651
78675
78665
78666
78671
78673
78686
78694
78705
78700
78708
78709
78722
78732
78729
78711
78672
78634
78578
78589
78569
78607
78596
78628
78641
78663
78662
78676
78681
78674
78702
78682
78678
78694
78701
78699
78717
78718
78749
78735
78742
78759
78735
78677
78619
78614
78608
78594
78587
78617
78626
78631
78658
78663
78692
78702
78705
78705
78716
78696
78729
78702
78716
78730
78731
78748
78748
78748
78760
78740
78758
78687
78621
78604
78603
78600
78593
78600
78619
78624
78658
78651
78686
78681
78687
78690
78714
78679
78707
78711
78695
78722
78716
78744
78741
78748
78735
78740
78742
78692
78624
78592
78571
78574
78554
78598
78610
78609
78617
78636
78648
78657
78660
78646
78651
78667
78647
78658
78652
78672
78665
78663
78679
78670
78704
78685
78665
78633
78584
78562
78540
78524
78541
78549
78544
78576
78581
78603
78614
78625
78620
78614
78625
78611
78628
78633
78631
78645
78638
78654
78667
78672
78668
78657
78648
78587
78557
78512
78513
78521
78536
78529
78544
78557
78587
78591
78618
78603
78626
78629
78636
78630
78652
78651
78661
78677
78685
78685
78680
78684
78704
78654
78592
78582
78553
78552
78558
78553
78567
78581
78595
78610
78643
78642
78639
78669
78654
78651
78663
78697
78664
78692
78690
78695
78706
78710
78717
78718
78707
78654
78608
78570
78565
78568
78571
78589
78595
78623
78637
78649
78669
78668
78682
78678
78685
78667
78661
78673
78689
78700
78694
78707
78710
78722
78722
78723
78705
78646
78603
78574
78571
78571
78594
78612
78624
78639
78633
78661
78678
78671
78686
78684
78672
78701
78685
78697
78696
78708
78703
78716
78716
78720
78735
78718
78684
78642
78603
78567
78553
78546
66136
78572
78585
78606
78596
78626
78627
78608
78636
78621
78640
78635
78626
78638
78663
78643
78633
78657
78646
78661
78673
78666
78641
78600
78548
78520
78504
78520
78540
78544
78573
78570
78582
78598
78609
78609
78650
78657
78655
78639
78668
78662
78667
78677
78692
78697
78700
78718
78740
78747
78680
78615
78599
78575
78586
78584
78591
78608
78629
78637
78659
78673
78692
78702
78685
78728
78702
78738
78728
78749
78718
78738
78757
78771
78762
78788
78775
78764
78698
78644
78629
78625
78624
78637
78648
78672
78668
78686
78708
78699
78732
78724
78740
78729
78746
78758
78741
78754
78767
78778
78783
78789
78779
78802
78795
78787
78726
78672
78632
78635
78649
78643
78661
78651
78656
78692
78682
78709
78717
78723
78715
78710
78720
78727
78716
78749
78747
78733
78756
78735
78754
78741
78775
78766
78719
78674
78621
78622
78598
78603
78617
78599
78639
78629
78656
78679
78705
78686
78694
78689
78678
78670
78668
78677
78693
78690
78696
78696
78708
78723
78713
78715
78706
78660
78611
78565
78545
78560
78557
78550
78579
78599
78605
78616
78640
78636
78644
78650
78649
78665
78667
78668
78669
78701
78676
78693
78697
78709
78720
78742
78712
78665
78612
78593
78563
78563
78571
78593
78586
78625
78633
78635
78656
78667
78664
78660
78677
78665
78655
78681
78694
78671
78683
78699
78699
78715
78732
78743
78693
78648
78595
78566
78568
78571
78572
78569
78600
78613
78626
78638
78646
78651
78656
78671
78670
78687
78649
78679
78683
78689
78681
78683
78689
78695
78718
78718
78691
78631
78580
78569
78544
78554
78572
78546
78597
78607
78622
78636
78654
78654
78642
78649
78648
78632
78670
78651
78663
78664
78680
78688
78673
78686
78696
78705
78687
78644
78591
78558
78507
78520
78526
78551
78550
78564
78572
78581
78605
78609
78599
78613
78618
78608
78612
78602
78611
78617
78621
78635
78642
78651
78655
78654
78632
78598
78548
78524
78528
78516
78525
78533
78548
78553
78597
78605
78605
78611
78601
78617
78603
78620
78645
78626
78644
78647
78662
78687
78675
78684
78696
78691
78688
78619
78559
78544
78557
78561
78559
78567
78593
78628
78614
78643
78644
78640
78645
78672
78654
78665
78684
78680
78693
78677
78697
78708
78701
78698
78726
78710
78663
78615
78572
78559
78563
78553
78570
78570
78593
78614
78615
78628
78662
78649
78658
78660
78645
78662
78671
78668
78689
78700
78705
78702
78699
78750
78712
78713
78686
78639
78594
78560
78552
78549
78556
78572
78567
78580
78590
78607
78609
78617
78618
78599
78601
78624
78616
78614
78649
78637
78634
78634
78663
78661
78671
78663
78624
78586
78554
78534
78514
78519
78517
78534
78532
78550
78584
78589
78595
78610
78598
78624
78603
78599
78634
78626
78628
78633
78632
78650
78653
78649
78654
78668
78632
78567
78555
78523
78520
78517
78537
78553
78584
78584
78606
78632
78641
78649
78639
78642
78655
78653
78661
78673
78690
78700
78733
78725
78725
78725
78724
78710
78663
78630
78597
78579
78599
78602
78601
78617
78636
78638
78681
78693
78713
78706
78693
78710
78707
78694
78719
78735
78724
78736
78738
78746
78750
78764
78758
78714
78670
78620
78626
78605
78623
78615
78630
78641
78680
78688
78709
78714
78713
78717
78734
78734
78722
78720
78734
78735
78759
78749
78787
78770
78781
78792
78768
78707
78667
78641
78619
78643
78644
78648
78655
78668
78692
78710
78705
78723
78737
78727
78742
78727
78727
78754
78747
78729
78741
78746
78771
78761
78771
78785
78761
78698
78651
78618
78627
78612
78638
78628
78658
78690
78684
78700
78727
78701
78701
78710
78691
78707
78707
78724
78719
78714
78716
78721
78732
78736
78742
78703
78660
78623
78610
78583
78603
78599
78623
78616
78624
78647
78655
78673
78673
78664
78683
78665
78686
78690
78686
78717
78699
78725
78732
78737
78733
78733
78701
78650
78611
78574
78593
78616
78627
78621
78656
78644
78683
78691
78708
78702
78709
78722
78710
78725
78732
78726
78737
78741
78735
78740
78742
78744
78724
78675
78628
78589
78588
78603
78594
78633
78612
78637
78669
78666
78682
78726
78686
78718
78720
78702
78715
78727
78732
78716
78762
78745
78753
78743
78762
78752
78684
78628
78626
78609
78589
78603
78620
78633
78665
78670
78701
78672
78693
78698
78699
78696
78713
78709
78714
78721
78710
78735
78737
78729
78739
78756
78718
78682
78624
78601
78572
78586
78587
78601
78611
78611
78644
78636
78662
78663
78657
78654
78654
78651
78633
78646
78652
78673
78691
78683
78688
78703
78694
78681
78638
78590
78561
78555
78568
78575
78572
78580
78610
78592
78630
78615
78629
78617
78624
78629
78613
78623
78618
78624
78632
78620
78607
78626
78627
78628
78594
78596
78499
78496
78470
78487
78503
78493
78522
78536
78563
78565
78580
78575
78613
78619
78600
78615
78618
78633
78632
78664
78646
78664
78678
78663
78654
78614
78550
78528
78543
78533
78529
78554
78569
78586
78610
78612
78637
78636
78633
78645
78656
78655
78653
78675
78674
78686
78697
78702
78708
78723
78707
78658
78605
78587
78564
78567
78579
78573
78588
78609
78643
78634
78666
78700
78660
78685
78670
78656
78669
78682
78687
78690
78700
78708
78691
78703
78712
78685
78643
78581
78570
78532
78543
78550
78556
78594
78579
78601
78611
78632
78619
78628
78635
78633
78648
78636
78627
78645
78645
78666
78645
78655
78664
78661
78635
78586
78543
78496
78494
78501
78492
78500
78524
78537
78540
78562
78598
78561
78570
78553
78562
78564
78562
78558
78572
78588
78591
78597
78602
78587
78604
78587
78538
78495
78474
78435
78431
78456
78486
78476
78499
78514
78526
78519
78544
78538
78541
78546
78549
78551
78578
78592
78574
78581
78600
78617
78605
78613
78591
78544
78528
78489
78505
78489
78513
78517
78510
78559
78586
78579
78609
78617
78602
78601
78611
78635
78636
78635
78628
78641
78635
78658
78661
78681
78650
78624
78570
78536
78504
78520
78546
78538
78547
78567
78602
78611
78620
78646
78639
78633
78638
78650
78664
78660
78657
78683
78676
78679
78699
78694
78697
78692
78630
78565
78555
78544
78554
78550
78566
78577
78593
78596
78620
78641
78657
78628
78642
78631
78637
78643
78634
78663
78665
78658
78667
78667
78688
78677
78671
78642
78607
78543
78530
78537
78528
78557
78545
78554
78558
78583
78607
78606
78601
78612
78596
78604
78601
78601
78637
78620
78621
78644
78638
78637
78629
78647
78649
78595
78553
78520
78502
78497
78497
78511
78555
78542
78556
78569
78587
78601
78598
78600
78596
78601
78626
78633
78625
78641
78640
78649
78662
78694
78678
78667
78624
78604
78546
78535
78544
78545
78559
78574
78591
78601
78619
78637
78654
78659
78642
78665
78655
78658
78675
78684
78696
78681
78709
78690
78706
78700
78684
78639
78594
78561
78563
78555
78556
78571
78605
78615
78617
78609
78648
78629
78655
78642
78647
78666
78693
78660
78653
78681
78677
78669
78671
78685
78684
78724
78696
78636
78580
78569
78549
78537
78546
78542
78553
78583
78586
78603
78629
78610
78610
78621
78625
78626
78625
78646
78630
78658
78633
78644
78650
78655
78661
78641
78591
78531
78502
78511
78506
78520
78511
78534
78542
78584
78578
78596
78584
78594
78609
78599
78600
78623
78610
78630
78625
78638
78643
78646
78657
78645
78625
78593
78546
78523
78527
78518
78547
78545
78573
78602
78603
78622
78622
78655
78623
78625
78653
78648
78657
78674
78676
78680
78684
78700
78712
78705
78672
78669
78607
78581
78581
78558
78580
78590
78600
78638
78656
78676
78682
78676
78697
78710
78711
78699
78705
78722
78953
78980
78960
78947
78984
78984
78966
78941
78890
78848
78835
78819
78821
78818
78826
78830
78861
78861
78897
78889
78909
78902
78917
78918
78919
78940
78928
78933
78952
78943
78949
78956
78914
78874
78857
78783
78733
78696
78678
78703
78723
78760
78765
78777
78785
78806
78836
78861
78879
78888
78929
78940
78989
78988
78969
78948
78882
78847
78791
78800
78808
78840
78660
78430
78141
77864
77791
77649
77370
77076
76845
76802
76850
76836
77109
77405
77548
77633
77644
77717
77868
77996
78004
77935
78003
77960
77773
77529
77430
77243
77099
77146
77251
77297
77185
77254
77250
77266
77351
77507
77647
77701
77908
78205
78468
78632
78732
78784
78839
78871
78887
78889
78915
78897
78940
78958
78911
78841
78759
78721
78739
78752
78800
78802
78819
78858
78859
78871
78850
78815
78811
78780
78788
78812
78794
78773
78730
78689
78691
78681
78671
78683
78649
78613
78553
78540
78561
78580
78609
78641
78653
78700
78715
78752
78773
78803
78808
78824
78825
78845
78848
78861
78877
78878
78881
78908
78915
78899
78865
78757
78723
78718
78703
78681
78696
78727
78740
78776
78819
78876
78897
78909
78922
78919
78947
78964
78980
78998
78984
79014
79047
79024
79028
78989
78893
78862
78813
78827
78849
78853
78888
78916
78932
78997
79037
79035
79065
79093
79086
79057
79007
78945
78919
78905
78902
78881
78865
78810
78737
78659
78593
78618
78597
78581
78596
78609
78663
78692
78730
78749
78766
78832
78871
78882
78922
79012
79017
79033
79063
79108
79100
79084
79027
78989
78931
78887
78887
78894
78910
78945
78947
78955
78994
79030
79061
79084
79106
79149
79151
79186
79184
79195
79204
79233
79228
79219
79181
79109
79062
79027
79017
79008
79018
79020
79015
79031
79068
79056
79084
79106
79117
79122
79138
79151
79182
79197
79210
79230
79234
79230
79185
79116
79067
79014
79023
79042
79087
79100
79130
79163
79132
79140
79120
79054
79028
78992
78985
78973
78962
78962
78961
78928
78854
78737
78658
78585
78565
78538
78523
78516
78497
78509
78517
78515
78477
78470
78449
78413
78394
78380
78337
78316
78263
78229
78170
78040
77905
77812
77754
77761
77728
77732
77722
77730
73049
77781
77811
77848
77864
77856
77874
77849
77860
77867
77846
77859
77858
77798
77686
77618
77591
77620
77664
77754
77904
78111
78255
78346
78452
78381
78467
78855
79136
79586
79808
79375
79156
79248
79677
80157
79834
79480
79375
79243
79254
79088
79025
78991
79013
79020
79048
79027
78942
78879
78884
78941
79031
79194
79278
79269
79288
79269
79239
79221
79245
79229
79246
79210
79215
79244
79254
79264
79289
79281
79287
79272
79262
79233
79250
79252
79265
79258
79213
79192
79159
79130
79083
79133
79199
79224
79273
79286
79338
79390
79418
79424
79446
79457
79468
79457
79469
79509
79571
79555
79601
79534
79511
79406
79309
79292
79287
79319
79367
79346
79326
79335
79390
79405
79440
79476
79501
79495
79504
79504
79515
79525
79501
79514
79484
79413
79402
79312
79256
79240
79209
79252
79312
79337
79328
79319
79299
79301
79281
79281
79274
79286
79299
79308
79297
79315
79291
79272
79220
79197
79207
79211
79225
79233
79262
79270
79288
79299
79317
79340
79341
79368
79404
79418
79430
79456
79480
79529
79498
79461
79453
79455
79231
79232
79294
79353
79386
79400
79451
79492
79530
79552
79573
79616
79605
79589
79569
79527
79486
79441
79371
79328
79273
79262
79248
79296
79387
79448
79518
79614
79662
79679
79717
79745
79770
79816
79839
79835
79887
79908
79931
79951
79934
79932
79917
79937
79969
79972
80000
80037
80042
80065
80103
80137
80169
80185
80192
80233
80242
80240
80250
80281
80278
80263
80225
80208
80214
80197
80213
80233
80245
80264
80273
80284
80296
80286
80329
80320
80344
80354
80366
80373
80376
80411
80421
80409
80355
80358
80368
80372
80390
80386
80403
80448
80457
80492
80502
80511
80533
80534
80523
80540
80538
80551
80583
80558
80526
80512
80528
80503
80501
80518
80517
80541
80549
80620
80640
80736
80776
80839
80883
80875
80843
80803
80748
80724
80673
80609
80563
80558
80525
80514
80477
80438
80422
80403
80351
80317
80252
80194
80208
80184
80197
80217
80226
80457
80593
80584
80310
80294
80469
80161
80090
79928
79821
79621
79446
79344
79310
79237
79174
79284
79504
79775
80117
80328
80287
80160
80464
80274
80412
80393
80243
80287
80400
80498
80560
80695
80703
80730
80760
80770
80792
80738
80703
80654
80571
80626
80686
80945
80770
80597
80327
80303
80185
80032
79843
79560
79393
79486
79383
79175
79246
79326
78935
78505
78895
78856
78698
78399
78078
77986
77895
77816
77700
77773
77846
77828
77771
77676
77623
77561
77614
77729
77881
78052
78113
78142
78092
77999
77989
78105
78224
78376
78517
78547
78682
78673
78675
78720
78796
78858
78988
79071
79150
79184
79198
78860
78421
78323
78295
78514
78513
78444
78387
78390
78364
78338
78317
78417
78503
78593
78571
78578
78655
78789
78883
78974
79043
79107
79164
79219
79285
79318
79377
79390
79393
79437
79451
79421
79425
79431
79428
79402
79386
79384
79397
79385
79403
79370
79404
79391
79396
79395
79412
79446
79457
79472
79469
79553
79743
79791
79770
79761
79786
79785
79761
79745
79755
79763
79836
79928
79997
80049
80139
80229
80310
80370
80402
80464
80519
80598
80625
80650
80671
80644
80633
80593
80603
80591
80617
80636
80613
80576
80587
80598
80598
80457
80352
80289
80187
79904
79621
79412
80014
79606
80491
80463
80480
80361
80320
80385
79742
80163
80618
80061
79579
80066
79780
79854
79398
79445
79419
79519
79638
79717
79656
79637
79513
79408
79299
79338
79388
79390
79515
79533
79509
79557
79657
79651
79694
79771
79767
79736
79694
79656
79696
79703
79708
79699
79658
79675
79701
79659
79662
79682
79703
79702
79736
79727
79756
79764
79752
79710
79707
79667
79698
79744
79772
79788
79811
79822
79821
79813
79817
79834
79858
79838
79887
79954
79957
79982
79972
79981
79978
79977
79979
80000
79997
79981
79986
79998
80002
80013
80006
80024
80027
80046
80082
80097
80038
80023
80002
80033
80035
80050
80059
80094
80126
80112
80106
80118
80120
80084
80067
80086
80074
80048
79986
79953
79935
79907
79903
79892
79876
79931
79950
79955
79957
79946
79932
79937
79884
79855
79786
79679
79540
79469
79360
79321
79290
79350
79424
79499
79510
79542
79602
79651
79678
79703
79734
79766
79782
79783
79749
79713
79652
79660
79625
79758
79754
79740
79649
79776
79793
79832
79890
79922
79933
79969
79945
79933
79895
79806
79759
79748
79710
79706
79709
79715
79736
79747
79743
79742
79769
79774
79780
79765
79778
79803
79806
79769
79721
79747
79759
79764
79803
79831
79843
79869
79912
79926
79977
79972
79957
79982
79976
79962
79945
79929
79872
79825
79823
79813
79838
79863
79912
79784
79535
79595
80119
79740
79931
79915
80219
80422
80004
79933
79922
79915
79886
79921
79921
79954
79914
79870
79808
79836
79867
79855
79865
79885
79922
79941
80000
80113
80140
80165
80150
80155
80214
80242
80300
80288
80386
80301
80227
80171
80130
80080
80040
80006
80008
80044
80039
80065
80054
80048
80066
80105
80101
80117
80156
80186
80177
80180
80198
80207
80230
80230
80240
80231
80233
80250
80177
80158
80119
80129
80119
80104
80109
80128
80133
80113
80152
80110
80153
80146
80140
80141
80181
80210
80193
80168
80156
80108
80111
80141
80104
80101
80084
80055
79972
79898
79883
79820
79772
79819
79805
79767
79736
79676
79631
79584
79592
79602
79615
79634
79674
79702
79702
79706
79667
79710
79743
79793
79804
79806
79814
79793
79754
79662
79655
79652
79669
79659
79660
79686
79706
79699
79687
79684
79680
79680
79709
79683
79667
79646
79573
79480
79406
79353
79281
79264
79205
79137
79059
78982
78962
78951
78912
78938
78944
78989
79016
79070
79102
79112
79096
79153
79186
79248
79320
79361
79441
79485
79519
79572
79577
79626
79662
79653
79698
79744
79760
79743
79682
79647
79653
79671
79690
79703
79711
79739
79750
79761
79782
79809
79816
79811
79856
79842
79835
79875
79857
79817
79817
79815
79815
79833
79825
79805
79810
79830
79850
79869
79869
79859
79833
79808
79747
79708
79746
79650
79596
79557
79547
79580
79548
79565
79621
79646
79675
79721
79750
79760
79769
79751
79760
79788
79765
79727
79670
79641
79615
79577
79582
79617
79569
79588
79615
79593
79598
79545
79516
79559
79571
79552
79567
79544
79516
79507
79460
79402
79509
79656
79673
79644
79586
79579
79595
79601
79630
79631
79665
79694
79750
79767
79750
79767
79738
79722
79796
79854
79895
79950
79966
79948
80002
80055
80054
80037
80059
80033
80021
80004
79957
79931
79864
79864
79882
79876
79886
79884
79884
79892
79874
79880
79870
79891
79908
79912
79921
79930
79924
79868
79822
79792
79792
79771
79790
79837
79884
79886
79903
79917
79910
79922
79922
79933
79953
79967
79984
79929
79906
79909
79922
79935
79966
80000
80015
80033
80073
80083
80078
80108
80089
80103
80106
80088
80138
80155
80040
79975
80024
80058
80057
80056
80054
80071
80076
80091
80095
80137
80130
80108
80096
80108
80127
80125
80064
80016
79989
79996
79976
79998
80019
80020
80053
80103
80133
80174
80191
80211
80207
80233
80216
80221
80077
79921
79914
79844
79850
79922
80020
80054
80124
80156
80212
80234
80178
80200
80258
80311
80328
80368
80329
80291
80253
80210
80225
80252
80249
80282
80293
80360
80371
80378
80367
80384
80360
80388
80361
80370
80369
80300
80268
80222
80211
80193
80221
80163
80149
80209
80235
80185
80179
80147
80125
80117
80140
80142
80119
80118
80130
80156
80110
80054
80080
80252
80226
80155
80134
80067
80024
80040
80027
80075
80096
80128
80160
80138
80102
80098
80095
80097
80139
80216
80245
80308
80305
80237
80256
80299
80323
80320
80303
80305
80333
80338
80290
80264
80221
80248
80234
80289
80304
80332
80339
80348
80336
80323
80343
80338
80347
80367
80355
80355
80310
80270
80246
80263
80322
80329
80291
80364
80400
80397
80378
80387
80367
80346
80359
80335
80343
80354
80362
80379
80393
80382
80380
80333
80286
80332
80352
80409
80438
80463
80467
80473
80489
80519
80564
80541
80582
80565
80444
80394
80414
80428
80483
80466
80455
80487
80469
80450
80419
80441
80467
80566
80637
80740
80844
80963
80968
80911
80845
80687
80603
80617
80618
80604
80622
80637
80607
80657
80676
80699
80676
80656
80612
80624
80579
80537
80493
80501
80511
80508
80524
80560
80580
80619
80653
80618
80534
80490
80470
80450
80426
80368
80274
80179
80040
79969
79887
79843
79744
79785
79898
79993
79996
79970
80003
79920
79911
79953
79973
79953
79931
79905
79886
79941
79975
79997
80035
80077
80087
80144
80232
80280
80304
80283
80292
80295
80324
80293
80237
80206
80167
80051
80030
80070
80035
80196
80230
80249
80284
80264
80266
80217
80231
80261
80288
80270
80258
80241
80237
80232
80271
80294
80342
80373
80451
80521
80564
80570
80587
80607
80621
80598
80627
80600
80581
80527
80464
80448
80469
80493
80501
80535
80555
80578
80571
80563
80536
80531
80511
80509
80479
80486
80417
80354
80322
80301
80274
80307
80300
80315
80333
80348
80401
80406
80379
80351
80371
80417
80407
80438
80453
80407
80377
80283
80306
80332
80351
80369
80429
80454
80473
80485
80537
80548
80599
80609
80637
80623
80598
80507
80454
80446
80371
80328
80255
80223
80209
80107
80088
80133
80130
80149
80190
80231
80237
80243
80276
80272
80268
80282
80290
80327
80357
80354
80394
80409
80428
80432
80430
80461
80471
80516
80526
80523
80493
80450
80404
80391
80397
80409
80415
80402
80424
80429
80458
80452
80470
80508
80541
80555
80581
80634
80616
80590
80591
80575
80576
80577
80613
80653
80647
80679
80692
80667
80686
80673
80686
80706
80707
80709
80686
80616
80596
80584
80584
80574
80593
80605
80611
80630
80622
80624
80620
80621
80652
80645
80651
80666
80620
80573
80545
80544
80508
80548
80544
80565
80618
80639
80630
80626
80623
80624
80630
80655
80647
80667
80660
80613
80580
80571
80581
80576
80584
80597
80612
80647
80628
80632
80637
80621
80654
80639
80682
80651
80619
80569
80565
80556
80531
80470
80384
80322
80269
80293
80289
80297
80340
80375
80374
80389
80380
80393
80380
80301
80290
80283
80284
80323
80336
80355
80381
80393
80377
80360
80360
80349
80350
80390
80374
80385
80373
80344
80327
80323
80317
80377
80394
80418
80437
80445
80441
80418
80448
80442
80474
80459
80466
80449
80419
80374
80399
80368
80391
80388
80409
80405
80423
80423
80386
80259
79968
79808
79898
79977
80055
80052
79974
79933
79965
80002
80057
80089
80096
80085
80036
79982
79936
79930
79904
79814
79750
79688
79662
79560
79140
78631
78476
78399
78436
78411
78466
78550
78599
78712
78777
78780
78768
79010
79174
79259
79331
79403
79396
79315
79282
79234
79224
79234
79269
79309
79360
79384
79406
79429
79450
79456
79510
79528
79547
79511
79476
79437
79419
79420
79416
79414
79422
79397
79401
79402
79435
79460
79408
79436
79427
79475
79472
79444
79401
79329
79296
79312
79317
79330
79376
79403
79454
79482
79512
79537
79571
79584
79586
79626
79609
79607
79580
79515
79475
79441
79408
79423
79373
79345
79329
79269
79133
79375
79887
80356
80611
80867
80967
80934
80393
80927
80828
80963
80926
80907
80929
80874
80807
80821
80749
80868
80875
80851
80743
80672
80578
80420
80451
80381
80666
80817
80806
80509
80729
80705
80598
80517
80463
80524
80614
80624
80607
80605
80610
80604
80580
80651
80633
80590
80570
80551
80560
80606
80646
80608
80612
80604
80630
80646
80672
80745
80857
80920
80965
81018
81022
81015
80999
80915
80879
80865
80761
80757
80773
80773
80780
80812
80850
80866
80868
80887
80885
80888
80897
80866
80892
80884
80908
80906
80846
80807
80802
80828
80882
80925
80927
80918
80930
80903
80882
80869
80867
80837
80822
80787
80766
80738
80719
80697
80626
80576
80569
80578
80594
80572
80564
80525
80530
80542
80543
80534
80528
80539
80522
80503
80460
80461
80431
80426
80430
80530
80586
80595
80546
80507
80468
80439
80428
80388
80397
80395
80408
80411
80418
80413
80393
80396
80419
80453
80450
80457
80446
80442
80473
80513
80532
80521
80524
80528
80530
80530
80542
80536
80516
80457
80422
80403
80418
80435
80430
80425
80433
80426
80425
80397
80388
80415
80441
80454
80466
80472
80435
80401
80384
80359
80344
80329
80310
80301
80288
80270
80267
80275
80294
80299
80311
80311
80301
80251
80205
80165
80147
80117
80099
80073
80045
80015
80021
80008
79983
79974
79983
80017
80039
80044
80086
80103
80072
80049
80026
80005
79982
79955
79936
79931
79931
79931
79924
79908
79901
79933
79969
79985
80010
80016
80023
80023
80027
80032
79985
79945
79913
79880
79842
79826
79816
79800
79821
79866
79921
79898
79866
79826
79807
79768
79736
79714
79700
79733
79795
79880
79993
80156
80269
80385
80472
80548
80632
80676
80690
80724
80736
80756
80762
80765
80758
80699
80634
80608
80557
80517
80469
80439
80417
80415
80440
80463
80468
80458
80437
80404
80400
80391
80381
80372
80376
80350
80346
80335
80322
80342
80352
80380
80418
80453
80457
80443
80445
80417
80433
80446
80465
80482
80510
80566
80607
80652
80699
80741
80763
80772
80800
80783
80779
80792
80747
80748
80746
80741
80726
80631
80527
80543
80611
80571
80522
80483
80487
80455
80460
80474
80466
80478
80498
80500
80485
80487
80474
80467
80462
80466
80507
80515
80518
80510
80516
80537
80572
80617
80614
80604
80619
80629
80634
80625
80632
80648
80635
80663
80690
80741
80817
80816
80804
80803
80800
80797
80797
80801
80813
80810
80793
80772
80744
80722
80699
80666
80661
80643
80620
80599
80579
80542
80535
80564
80596
80623
80658
80715
80749
80802
80839
80864
80864
80881
80895
80902
80914
80926
80911
80909
80917
80904
80918
80906
80909
80908
80916
80910
80919
80920
80907
80904
80888
80899
80877
80877
80843
80850
80839
80801
80767
80750
80732
80738
80723
80757
80761
80775
80773
80775
80792
80793
80789
80792
80783
80780
80771
80777
80758
80734
80750
80737
80774
80781
80771
80738
80730
80756
80784
80793
80792
80774
80763
80756
80761
80737
80709
80660
80645
80606
80592
80586
80565
80567
80534
80543
80530
80503
80513
80529
80551
80536
80542
80584
80630
80634
80644
80640
80616
80616
80609
80577
80579
80596
80608
80603
80607
80601
80622
80633
80638
80667
80710
80743
80762
80793
80793
80786
80764
80774
80789
80779
80765
80719
80720
80721
80700
80648
80624
80607
80617
80601
80606
80651
80684
80671
80633
80631
80642
80648
80667
80672
80662
80638
80657
80651
80639
80648
80653
80688
80717
80714
80705
80696
80693
80677
80665
80630
80626
80617
80605
80573
80538
80509
80463
80431
80451
80474
80465
80457
80433
80406
80384
80345
80311
80279
80230
80159
80096
80073
80067
80069
80050
80003
79986
80014
80012
79979
79971
79974
79966
79941
79906
79877
79887
79914
79945
79932
79941
79973
80022
80053
80091
80140
80251
80264
80279
80298
80309
80336
80326
80310
80279
80268
80256
80279
80284
80274
80261
80258
80279
80308
80343
80369
80375
80377
80380
80378
80382
80395
80406
80429
80433
80427
80414
80430
80429
80437
80458
80507
80552
80570
80605
80587
80595
80570
80555
80541
80521
80490
80497
80484
80480
80472
80480
80492
80513
80539
80573
80582
80589
80553
80522
80531
80551
80616
80627
80699
80777
80824
80839
80849
80867
80839
80762
80716
80546
80603
80826
80847
80847
80690
80613
80504
80439
80397
80375
80360
80317
80293
80275
80250
80245
80265
80270
80278
80256
80238
80221
80233
80206
80208
80233
80204
80183
80153
80161
80132
80088
80034
80056
80092
80156
80185
80204
80256
80299
80304
80336
80339
80328
80296
80282
80239
80247
80252
80234
80247
80281
80324
80377
80390
80413
80414
80386
80353
80349
80332
80319
80309
80301
80281
80285
80278
80262
80232
80217
80214
80259
80276
80277
80324
80340
80403
80460
80498
80525
80556
80586
80603
80603
80607
80614
80619
80687
80736
80811
80888
80949
80956
80954
80945
80877
80793
80626
80426
80467
80569
80624
80656
80680
80701
80740
80768
80812
80857
80910
80913
80916
80830
80748
80683
80638
80606
80562
80515
80439
80365
80306
80246
80195
80206
80228
80259
80263
80262
80249
80253
80264
80273
80260
80257
80271
80250
80234
80259
80256
80248
80277
80289
80271
80248
80213
80152
80126
80113
80102
80115
80135
80178
80203
80211
80221
80246
80247
80242
80244
80257
80269
80288
80289
80276
80265
80253
80252
80222
80206
80188
80167
80160
80161
80143
80135
80124
80114
80120
80127
80146
80159
80162
80146
80154
80142
80125
80133
80128
80126
80128
80144
80155
80152
80162
80166
80198
80231
80252
80285
80282
80300
80301
80295
80275
80278
80265
80280
80273
80263
80266
80262
80259
80268
80265
80279
80308
80318
80326
80317
80307
80304
80302
80291
80297
80315
80321
80342
80344
80364
80353
80361
80396
80399
80423
80443
80444
80448
80442
80430
80432
80426
80433
80447
80447
80443
80443
80438
80431
80435
80451
80477
80491
80505
80497
80481
80475
80451
80455
80435
80414
80417
80405
80417
80413
80388
80382
80376
80381
80393
80427
80441
80436
80424
80430
80425
80413
80406
80408
80408
80403
80435
80462
80464
80478
80499
80526
80566
80585
80618
80624
80634
80632
80640
80619
80636
80646
80649
80648
80652
80653
80646
80649
80637
80642
80678
80690
80693
80710
80702
80713
80715
80715
80705
80695
80691
80692
80697
80694
80742
80762
80778
80828
80881
80907
80934
80946
80991
80999
81007
81014
81019
81012
81029
81019
81023
81031
81022
81036
81039
81080
81087
81091
81107
81100
81096
81093
81099
81099
81080
81081
81095
81115
81117
81107
81110
81097
81092
81067
81066
81030
81037
81022
81063
81070
81079
81079
81047
81035
81042
81051
81048
81040
81053
81073
81092
81084
81056
81032
81001
80993
80984
80986
80993
80989
81005
81012
80995
81003
80993
80998
80940
80888
80767
80696
80415
80213
79871
79303
78787
78529
78288
78086
78420
78687
78895
79071
79253
79304
79337
79570
79375
79456
79638
79761
79927
80048
80140
80207
80197
80559
81066
80991
80495
79825
79882
79499
79115
78046
78518
78745
77500
77172
77205
77624
78272
78488
79302
79810
79947
79594
79588
80139
80517
80757
80646
80693
80716
80891
81041
80900
80840
80453
80247
80378
80712
80845
80981
81004
80938
80853
80787
80754
80709
80689
80660
80605
80545
80529
80493
80437
80391
80390
80375
80392
80371
80425
80460
80452
80373
80283
80234
80139
80087
80014
80007
79992
79983
79946
79908
79808
79736
79676
79658
79668
79655
79582
79541
79508
79437
79343
79265
79271
79340
79425
79491
79534
79620
79678
79703
79688
79686
79671
79704
79728
79729
79749
79752
79759
79738
79660
79629
79615
79659
79645
79594
79606
79588
79629
79602
79619
79629
79630
79690
79679
79682
79693
79719
79692
79581
79501
79465
79329
79209
79183
79215
79206
79250
79225
79251
79298
79279
79324
79265
79271
79258
79282
79315
79251
79149
79122
79145
79179
79154
79135
79168
79217
79227
79218
79206
79216
79226
79224
79191
79176
79210
79210
79175
79121
79074
79093
79086
79108
79143
79173
79202
79240
79248
79383
79424
79462
79491
79490
79493
79522
79542
79526
79429
79378
79330
79326
79332
79350
79391
79378
79394
79399
79409
79389
79354
79393
79383
79338
79307
79259
79229
79137
79074
79010
78979
78986
78997
79016
79052
79058
79059
79083
79104
79099
79115
79117
79134
79131
79100
79050
78979
78967
78964
78986
78996
79045
79058
79064
79089
79097
79122
79152
79157
79155
79197
79215
79258
79255
79277
79270
79249
79187
79160
79138
79132
79140
79150
79171
79143
79134
79221
79257
79208
79184
79208
79221
79211
79163
79171
79129
79053
79013
78980
79024
79026
79070
79097
79127
79115
79091
79069
79086
79088
79048
79047
79049
79033
79041
78973
78927
78829
78707
78558
78404
78310
78126
77954
77920
77874
77924
77988
78122
78205
78309
78415
78535
78597
78639
78674
78652
78644
78661
78675
78686
78718
78754
78755
78768
78775
78780
78754
78760
78800
78769
78781
78793
78830
78781
78718
78636
78653
78699
78728
78731
78714
78741
78754
78730
78752
78713
78722
78727
78759
78764
78798
78808
78803
78779
78772
78773
78799
78808
78833
78871
78874
78911
78946
78950
78949
78945
78974
78991
79024
78987
78967
78963
78884
78817
78784
78782
78777
78812
78831
78849
78849
78886
78897
78898
78898
78916
78883
78914
78922
78944
78945
78908
78853
78908
78893
78876
78906
78952
78945
78939
78960
78976
78951
78956
78992
79000
79015
79016
79025
79044
79040
78973
78985
78972
78991
79021
79036
79054
79078
79069
79059
79087
79103
79108
79133
79160
79180
79158
79138
79107
79091
79075
79092
79113
79140
79179
79191
79241
79254
79245
79252
79284
79290
79289
79328
79359
79364
79325
79274
79270
79300
79308
79334
79366
79358
79353
79359
79366
79329
79321
79328
79316
79283
79275
79259
79168
79157
79147
79132
79066
79053
79061
79062
79056
79052
79038
79090
79093
79249
79374
79384
79399
79403
79370
79289
79261
79279
79309
79310
79315
79349
79365
79330
79326
79333
79347
79327
79316
79307
79329
79357
79400
79344
79364
79423
79451
79516
79586
79682
79726
79791
79840
79877
79960
80030
80053
80109
80174
80202
80268
80327
80332
80395
80440
80574
80731
80777
80747
80823
80999
80998
81016
81145
81150
81144
81099
80978
80838
80712
80649
80632
80570
80521
80497
80536
80596
80692
80698
80707
80804
80877
80905
80957
80985
80893
80729
80528
80416
80548
80501
80456
80370
80293
80370
80292
80188
80157
80164
80164
80143
80151
80176
80238
80288
80347
80333
80364
80380
80395
80397
80433
80449
80385
80302
80153
80063
79965
79855
79841
79865
79810
79652
79466
79404
79245
78817
78534
78210
77761
77457
77240
77071
76938
76860
76569
76315
76062
76234
76340
76290
76253
76111
76060
76191
76268
76314
76270
76245
76137
75957
75868
75794
75731
75598
75456
75478
75541
75495
75462
75497
75634
75773
75843
75912
76064
76227
76340
76418
76486
76533
76607
76719
76848
77000
77151
77183
77214
77240
77254
77388
77414
77419
77447
77536
77535
77499
77502
77577
77631
77669
77687
77744
77741
77714
77685
77757
77762
77776
77754
77694
77661
77619
77491
77401
77500
77575
77573
77635
77652
77729
77728
77709
77718
77721
77752
77779
77817
77845
77843
77850
77833
77838
77864
77856
77844
77871
77907
77906
77835
77798
77804
77822
77845
77887
77907
77922
77889
77903
77898
77938
77962
77986
77940
77891
77900
77891
77843
77909
77908
77908
77914
77830
77789
77756
77809
77810
77784
77791
77811
77835
77844
77819
77828
77784
77721
77654
77625
77560
77568
77582
77595
77573
77547
77648
77815
77936
77756
77596
77615
77543
77618
77568
77484
77509
77511
77483
77527
77598
77636
77603
77586
77651
77706
77665
77656
77729
77824
77827
77850
77887
77945
78021
78121
78215
78260
78286
78348
78340
78323
78313
78304
78272
78281
78269
78238
78163
78154
78119
78125
78149
78154
78186
78168
78131
78097
78064
78025
78020
78021
78047
78016
77932
77899
77872
77858
77799
77797
77804
77797
77771
77711
77719
77712
77713
77661
77655
77648
77632
77569
77533
77521
77559
77573
77574
77574
77592
77589
77560
77534
77525
77522
77527
77530
77496
77479
77418
77387
77372
77372
77409
77411
77428
77429
77433
77472
77464
77469
77486
77527
77525
77546
77538
77519
77494
77480
77474
77512
77531
77564
77567
77553
77557
77566
77524
77555
77524
77500
77479
77437
77357
77316
77252
77283
77308
77314
77317
77329
77325
77320
77282
77235
77240
77254
77284
77242
77230
77189
77147
77156
77137
77151
77195
77236
77240
77277
77301
77313
77332
77347
77399
77405
77452
77489
77500
77485
77512
77538
77592
77636
77669
77713
77749
77785
77799
77821
77860
77901
77891
77899
77924
77897
77884
77958
77974
78001
78013
78046
78149
78222
78211
78273
78230
78234
78217
78224
78211
78152
78097
78068
78053
77997
77929
77963
78036
78012
77912
77891
77887
77876
77874
77865
77861
77810
77746
77715
77690
77659
77671
77683
77713
77728
77704
77708
77715
77707
77734
77718
77717
77716
77732
77691
77668
77666
77670
77692
77715
77734
77772
77778
77786
77780
77812
77860
77876
77906
77888
77871
77853
77836
77845
77851
77862
77887
77887
77890
77908
77917
77929
77950
77987
78008
78018
78006
77995
77970
77955
77951
77955
77980
77968
77947
77931
77853
77826
77793
77763
77740
77741
77727
77661
77618
77569
77540
77456
77402
77405
77363
77366
77367
77379
70114
77391
77387
77410
77385
77400
77370
77322
77284
77244
77193
77184
77187
77190
77175
77115
77050
77026
77005
76987
76959
76980
76980
76957
76951
77006
77058
77096
77135
77195
77233
77280
77339
77383
77412
77411
77401
77417
77374
77327
77323
77253
77213
77247
77271
77293
77291
77313
77341
77329
77324
77343
77384
77356
77368
77392
77380
77318
77283
77330
77363
77402
77423
77461
77472
77509
77520
77534
77545
77569
77555
77528
77502
77419
77388
77349
77369
77370
77367
77359
77389
77366
77376
77371
77364
77395
77377
77409
77403
77365
77321
77330
77381
77385
77391
77433
77491
77528
77571
77573
77620
77659
77713
77738
77767
77806
77778
77739
77723
77737
77756
77768
77767
77767
77774
77794
77791
77744
77753
77753
77732
77722
77636
77573
77569
77536
77524
77547
77583
77560
77615
77679
77680
77661
77656
77648
77698
77705
77674
77628
77583
77502
77483
77497
77528
77501
77524
77512
77525
77517
77510
77494
77488
77502
77506
77483
77453
77441
77439
77476
77520
77568
77620
77652
77708
77695
77689
77729
77719
77744
77755
77733
77711
77682
77706
77742
77746
77769
77764
77773
77747
77761
77757
77726
77710
77728
77737
77718
77647
77628
77594
77601
77630
77663
77681
77656
77619
77592
77550
77544
77550
77554
77542
77524
77435
77365
77342
77352
77368
77366
77405
77445
77443
77456
77460
77467
77467
77482
77492
77503
77496
77452
77463
77471
77482
77526
77560
77607
77663
77677
77712
77707
77745
77779
77813
77824
77846
77862
77826
77829
77852
77868
77942
77962
77961
77995
78017
78032
78015
78013
78032
78071
78050
78011
77982
77959
77937
77947
77947
77976
78008
77976
77941
77934
77936
77895
77890
77876
77861
77799
77728
77656
77641
77605
77626
77624
77657
77649
77641
77639
77642
77620
77636
77637
77633
77587
77561
77563
77551
77545
77563
77575
77619
77621
77616
77615
77612
77610
77629
77648
77670
77664
77647
77623
77632
77653
77691
77722
77764
77776
77755
77767
77792
77804
77807
77817
77832
77815
77782
77731
77690
77705
77707
77725
77761
77751
77734
77729
77704
77637
77627
77620
77609
77606
77577
77561
77561
77538
77579
77591
77618
77611
77576
77563
77563
77543
77542
77544
77538
77533
77501
77460
77476
77478
77488
77508
77530
77555
77568
77547
77539
77546
77543
77553
77570
77586
77581
77547
77558
77585
77627
77646
77682
77706
77728
77721
77742
77739
77750
77794
77817
77797
77805
77806
77805
77782
77776
77819
77854
77891
77904
77901
77936
77949
77955
77936
77942
77950
77929
77900
77866
77851
77889
77888
77891
77903
77905
77919
77948
77947
77974
77989
77986
78004
78021
78030
78009
77999
78009
78017
78039
78052
78065
78074
78070
78051
78057
78074
78086
78094
78118
78121
78118
78101
78092
78123
78147
78179
78218
78244
78268
78303
78308
78331
78320
78373
78379
78408
78415
78414
78428
78435
78471
78496
78553
78581
78594
78629
78636
78658
78675
78711
78729
78731
78725
78722
78707
78729
78727
78776
78775
78832
78860
78890
78912
78914
78948
78954
78963
79014
78988
78973
78944
78952
78950
78983
79011
79021
79047
79068
79071
79073
79091
79113
79114
79145
79146
79118
79113
79098
79124
79117
79115
79144
79136
79158
79139
79166
79147
79180
79211
79236
79230
79178
79159
79130
79147
79137
79150
79148
79178
79193
79195
79199
79201
79188
79194
79208
79173
79106
79081
79051
79071
79055
79074
79070
79074
79087
79089
79076
79077
79075
79067
79052
79045
78977
78953
78888
78909
78893
78890
78888
78899
78910
78923
78933
78941
78950
78965
78971
78944
78898
78861
78840
78820
78835
78797
78806
78809
78827
78839
78866
78869
78893
78898
78901
78886
78827
78783
78722
78705
78677
78699
78669
78646
78664
78656
78712
78695
78678
78647
78672
78658
78628
78577
78488
78472
78586
78571
78584
78589
78604
78622
78656
78646
78645
78645
78665
78660
78669
78614
78545
78518
78503
78516
78503
78519
78521
78539
78523
78526
78547
78533
78524
78523
78543
78515
78472
78417
78388
78396
78398
78421
78414
78432
78482
78450
78451
78455
78476
78498
78497
78470
78477
78413
78370
78364
78343
78347
78365
78395
78405
78414
78422
78431
78436
78436
78451
78461
78466
78462
78403
78336
78336
78353
78348
78377
78432
78441
78462
78493
78523
78516
78529
78554
78558
78585
78585
78576
78502
78499
78488
78489
78476
78472
78421
78368
78262
78170
78012
77963
77948
78045
78200
78269
78315
78374
78398
78467
78543
78603
78649
78682
78720
78719
78690
78681
78688
78706
78709
78714
78713
78662
78598
78580
78587
78605
78613
78637
78674
78703
78714
78748
78752
78765
78790
78820
78852
78859
78861
78826
78790
78755
78752
78707
78745
78802
78820
78799
78769
78819
78846
78876
78896
78856
79124
80280
80694
80573
79638
80760
76727
80788
77402
76131
76040
79916
80443
80569
80806
80777
80783
79934
79529
79346
79180
79065
79044
78681
77408
77532
77667
77957
78177
78288
78496
78111
77415
77803
76705
75758
75962
75876
75721
75679
75459
75321
75396
75537
76040
76470
76902
77315
77422
77859
78323
78162
78169
78268
78375
78176
78091
78256
78201
78374
78419
79050
79260
78790
79401
78467
78893
78910
78653
78435
78425
78309
78207
78102
78053
77943
77951
77911
78164
78332
78391
78501
78525
78481
78407
78458
78488
78540
78656
78735
78770
78797
78853
78893
78948
79025
79069
79142
79239
79316
79376
79388
79414
79453
79492
79532
79536
79512
79490
79465
79446
79468
79472
79454
79467
79483
79475
79492
79482
79471
79469
79462
79484
79483
79481
79496
79445
79409
79399
79403
79390
79409
79406
79430
79452
79434
79420
79420
79408
79464
79460
79469
79502
79485
79453
79421
79422
79434
79447
79471
79498
79521
79532
79527
79538
79550
79553
79565
79590
79613
79629
79632
79618
79592
79586
79600
79581
79600
79627
79641
79667
79689
79695
79719
79713
79736
79733
79759
79759
79758
79704
79688
79686
79667
79673
79686
79684
79695
79732
79737
79761
79789
79782
79797
79796
79804
79792
79829
79801
79772
79779
79758
79761
79762
79778
79800
79828
79843
79853
79875
79905
79921
79905
79962
79968
79972
79974
79938
79881
79853
79873
79860
79834
79864
79878
79883
79891
79898
79917
79906
79921
79943
79958
79952
79961
79944
79901
79880
79863
79845
79847
79822
79839
79852
79883
79869
79858
79854
79895
79864
79899
79883
79953
79953
79932
79901
79857
79864
79838
79844
79863
79852
79873
79895
79892
79900
79938
79928
79917
79910
79913
79934
79909
79900
79849
79813
79792
79788
79781
79799
79799
79813
79842
79860
79877
79907
79867
79892
79891
79897
79897
79894
79874
79856
79779
79751
79731
79719
79711
79691
79697
79689
79716
79705
79696
79696
79679
79691
79681
79698
79681
79648
79628
79602
79580
79526
79494
79505
79502
79519
79547
79576
79575
79607
79607
79603
79616
79623
79633
79632
79692
79717
79677
79627
79567
79537
79526
79513
79519
79536
79569
79584
79615
79633
79621
79675
79692
79686
79691
79707
79714
79699
79644
79578
79545
79533
79533
79517
79497
79499
79506
79510
79495
79496
79475
79491
79497
79489
79474
79467
79446
79460
79427
79337
79285
79288
79279
79283
79291
79329
79366
79395
79422
79428
79439
79451
79465
79473
79489
79526
79565
79582
79549
79514
79470
79478
79502
79498
79473
79473
79478
79449
79488
79482
79489
79508
79508
79499
79496
79507
79499
79504
79506
79484
79396
79374
79336
79308
79297
79307
79322
79343
79332
79306
79333
79310
79333
79331
79389
79383
79410
79425
79474
79458
79409
79382
79379
79359
79375
79383
79400
79446
79470
79529
79564
79571
79553
79567
79600
79619
79609
79606
79646
79624
79613
79563
79532
79506
79499
79474
79499
79517
79519
79543
79545
79551
79535
79531
79540
79494
79417
79307
79368
79315
79314
79328
79257
79255
79245
79259
79296
79296
79314
79327
79323
79326
79341
79325
79339
79336
79340
79365
79379
79389
79423
79440
79449
79423
79387
79379
79399
79412
79444
79470
79501
79541
79583
79621
79605
79653
79646
79683
79667
79664
79644
79626
79629
79578
79521
79462
79451
79436
79433
79425
79443
79441
79437
79463
79437
79421
79394
79362
79317
79310
79302
79308
79298
79283
79247
79161
79116
79103
79086
79056
79057
79052
79071
79052
79066
79066
79087
79156
79207
79209
79251
79315
79342
79336
79385
79361
79306
79278
79247
79228
79206
79189
79192
79220
79260
79292
79322
79301
79338
79358
79348
79333
79252
79237
79196
79218
79226
79199
79106
79019
78944
78904
78918
78879
78911
78895
78903
78899
78929
78968
78943
78952
78953
78961
78985
78990
79017
79073
79132
79141
79102
79038
78975
78987
79001
79020
79044
79031
79068
79117
79153
79181
79206
79221
79222
79216
79211
79184
79182
79217
79224
79251
79281
79254
79231
79183
79130
79160
79293
79240
79072
78957
78933
78940
79009
78996
78972
78949
78933
78984
79044
79078
79141
79154
79152
79113
79062
78958
78891
78887
78901
78956
78992
79019
79055
79093
79156
79200
79221
79260
79307
79351
79410
79432
79453
79487
79527
79551
79498
79494
79498
79460
79472
79516
79536
79600
79646
79656
79671
79704
79726
79728
79741
79767
79807
79841
79852
79914
79907
79934
79895
79872
79882
79871
79916
79933
79939
79953
79952
79949
79954
79952
79946
79938
79931
79948
79927
79922
79904
79925
79908
79915
79936
79959
79940
79956
79951
79937
79937
79917
79880
79854
79822
79788
79799
79771
79775
79770
79777
79789
79798
79810
79802
79809
79854
79890
79939
79974
79986
79991
79970
79990
79980
79966
79965
79956
79953
79942
79929
79927
79918
79890
79889
79862
79853
79851
79881
79941
79994
79995
80002
80012
80003
79993
79981
79981
79983
79958
79973
79970
79965
79975
79958
79971
79957
79961
79946
79966
80001
80052
80101
80113
80137
80133
80136
80134
80126
80122
80147
80153
80184
80209
80243
80281
80318
80341
80359
80361
80341
80365
80383
80403
80398
80412
80374
80401
80406
80395
80367
80349
80353
80343
80330
80332
80319
80329
80337
80330
80336
80334
80339
80327
80342
80377
80396
80402
80382
80390
80386
80394
80383
80388
80365
80359
80368
80376
80362
80374
80352
80368
80381
80368
80366
80370
80373
80375
80364
80359
80346
80343
80343
80359
80335
80342
80337
80293
80253
80215
80167
80103
80059
80033
80006
79999
79973
79945
79923
79906
79903
79908
79888
79865
79874
79913
79956
79992
80024
80038
80056
80075
80075
80064
80058
80061
80046
80042
80052
80045
80066
80089
80144
80186
80203
80209
80221
80215
80223
80224
80215
80233
80217
80245
80256
80269
80267
80275
80276
80281
80300
80309
80292
80305
80321
80300
80312
80297
80316
80306
80296
80301
80308
80299
80307
80308
80298
80311
80312
80294
80317
80298
80308
80305
80285
80309
80311
80279
80260
80214
80223
80183
80190
80167
80202
80234
80233
80231
80218
80206
80176
80139
80097
80049
79982
79893
79818
79759
79714
79642
79539
79429
79359
79307
79204
79189
79168
79174
79172
79168
79203
79192
79182
79199
79165
79159
79135
79160
79143
79090
79053
79053
79073
78026
77663
77349
77070
76760
76533
76347
76202
76083
76000
75938
75853
75771
75695
75610
75543
75492
75413
75354
75281
75236
75171
75143
75107
74975
74893
74824
74782
74779
74788
74808
74836
74881
74910
74925
74940
74924
74922
74928
74931
74937
74939
74946
74960
74970
74977
74948
74824
74750
74695
74650
74653
74643
74664
74695
74739
74752
74763
74777
74775
74790
74781
74786
74800
74798
74801
74799
74813
74813
74760
74652
74541
74497
74455
74435
74437
74460
74460
74478
74478
74503
74494
74497
74475
74473
74477
74463
74481
74461
74465
74475
74456
74384
74280
74200
74135
74105
74116
74126
74105
74152
74176
74179
74179
74195
74191
74190
74192
74179
74183
74196
74191
74215
74220
74233
74173
74072
73981
73929
73911
73912
73940
73964
73988
74016
74028
74040
74065
74054
74082
74079
74094
74098
74121
74136
74139
74148
74169
74156
74093
74005
73911
73853
73830
73826
73854
73861
73908
73914
73923
73933
73951
73959
73971
73961
73998
74028
74026
74037
74058
74058
74067
74077
74023
73945
73875
73827
73813
73815
73856
73878
73893
73929
73980
74002
74036
74059
74049
74074
74090
74091
74116
74112
74148
74144
74149
74163
74134
74078
73981
73909
73900
73896
73923
73941
73972
74026
74053
74086
74110
74137
74130
74132
74155
74171
74172
74172
74186
74200
74221
74206
74201
74155
74059
73987
73961
73944
73952
73977
74010
74035
74055
74097
74122
74133
74146
74139
74146
74166
74161
74180
74183
74188
74213
74226
74200
74129
74036
73971
73917
73940
73935
73974
74012
74053
74094
74142
74172
74202
74245
74279
74320
74390
74407
74457
74471
74525
74546
74573
74525
74407
74352
74317
74299
74358
74400
74502
74616
74907
75421
76065
77240
77238
78294
78988
79403
79989
80065
80158
80216
80213
80067
79928
79823
79715
79726
79648
79584
79460
79291
78762
78242
77736
77459
77336
77188
77010
76860
76814
76830
76816
76815
76837
76924
76982
77088
77156
77159
77083
76977
76914
76893
76888
76883
76879
76893
76924
76953
76996
77010
77034
77068
77074
77110
77108
77159
77193
77245
77268
77334
77362
77421
77392
77313
77243
77242
77240
77275
77372
77545
77649
77668
77760
78086
78486
78941
79758
80271
80100
79894
79887
79863
80086
79861
79794
79816
80002
80215
80002
79378
79161
78804
78695
78644
78785
78920
79008
79149
79185
79300
79233
79293
79745
80256
79785
79432
79207
79548
79399
79175
79057
79040
78911
78936
78885
78872
78757
78769
78868
79117
79333
79406
79429
79414
79483
79522
79530
79548
79609
79659
79647
79761
79915
80039
80184
80182
80052
79737
79325
79431
79460
79459
79456
79358
79298
79240
79156
79047
78869
78684
78492
78328
78176
78051
77962
77878
77813
77822
77729
77683
77592
77588
77546
77492
77465
77490
77529
77616
77697
77776
77805
77848
77881
77927
77961
77990
78037
78043
78071
78115
78164
78195
78199
78227
78208
78194
78149
78127
78094
78075
78064
78079
78065
78051
78065
78070
78070
78074
78067
78080
78073
78092
78114
78103
78137
78328
78641
78791
78751
78782
78813
78807
78790
78780
78867
78960
79036
79100
79143
79133
79143
79147
79143
79140
79154
79153
79175
79202
79219
79246
79261
79259
79210
79168
79167
79178
79217
79254
79313
79336
79370
79402
79435
79489
79485
79515
79539
79570
79583
79582
79602
79615
79640
79631
79625
79600
79551
79544
79521
79542
79540
79565
79557
79582
79605
79616
79653
79659
79644
79677
79674
79677
79671
79701
79687
79692
79702
79747
79822
79870
79908
79948
79960
79970
79981
80025
80048
80100
80122
80180
80199
80204
80202
80206
80228
80224
80257
80276
80310
80335
80330
80325
80312
80304
80287
80281
80284
80290
80320
80317
80325
80317
80314
80323
80327
80326
80328
80321
80294
80304
80319
80317
80320
80322
80336
80306
80253
80253
80267
80279
80302
80306
80322
80315
80327
80342
80332
80333
80338
80338
80335
80351
80346
80340
80346
80338
80352
80354
80353
80342
80316
80303
80333
80309
80333
80340
80342
80346
80356
80359
80356
80344
80353
80368
80359
80361
80361
80366
80366
80362
80359
80364
80368
80365
80366
80375
80367
80353
80381
80385
80390
80385
80382
80376
80392
80363
80392
80381
80384
80377
80389
80387
80371
80370
80357
80352
80340
80346
80374
80388
80391
80395
80391
80384
80382
80376
80385
80400
80378
80379
80386
80391
80397
80388
80372
80376
80372
80363
80368
80357
80361
80360
80379
80387
80374
80375
80380
80358
80359
80382
80369
80382
80365
80360
80365
80345
80343
80352
80345
80365
80360
80362
80374
80357
80359
80362
80351
80374
80338
80338
80320
80343
80326
80337
80340
80338
80348
80353
80351
80359
80352
80357
80359
80351
80361
80351
80351
80363
80353
80363
80367
80377
80347
80345
80326
80307
80340
80321
80356
80372
80356
80348
80369
80363
80352
80347
80355
80356
80354
80350
80370
80373
80370
80358
80380
80362
80372
80349
80365
80333
80344
80350
80382
80368
80386
80384
80370
80364
80370
80389
80379
80371
80369
80360
80378
80379
80374
80372
80366
80380
80369
80358
80353
80376
80357
80347
80369
80383
80380
80379
80371
80380
80381
80375
80379
80365
80365
80378
80380
80376
80374
80375
80390
80385
80386
80372
80369
80343
80345
80345
80381
80378
80376
80380
80389
80382
80382
80358
80387
80368
80382
80378
80379
80374
80375
80369
80366
80374
80377
80380
80389
80382
80359
80372
80343
80353
80358
80351
80355
80348
80351
80364
80349
80368
80365
80358
80363
80359
80347
80374
80365
80364
80357
80346
80347
80348
80358
80355
80330
80307
80303
80270
80274
80313
80302
80316
80339
80358
80340
80339
80344
80352
80344
80335
80355
80343
80347
80341
80336
80335
80345
80334
80346
80321
80297
80275
80278
80279
80240
80236
80274
80286
80298
80290
80284
80306
80317
80306
80309
80291
80304
80322
80324
80313
80325
80322
80313
80310
80266
80219
80158
80177
80149
80177
80186
80190
80208
80196
80207
80217
80225
80235
80242
80268
80240
80256
80267
80274
80283
80278
80282
80290
80276
80236
80172
80159
80153
80149
80163
80178
80162
80186
80194
80240
80237
80233
80236
80253
80247
80238
80261
80254
80258
80273
80289
80302
80274
80277
80230
80189
80161
80165
80153
80182
80172
80205
80198
80217
80229
80214
80254
80256
80247
80257
80255
80261
80274
80285
80297
80290
80292
80301
80327
80297
80250
80236
80185
80198
80193
80211
80222
80244
80246
80277
80297
80288
80303
80304
80281
80288
80291
80293
80314
80307
80315
80314
80336
80351
80321
80314
80270
80254
80243
80260
80258
80293
80291
80313
80336
80342
80351
80350
80326
80337
80340
80347
80358
80354
80348
80351
80341
80350
80352
80349
80349
80337
80332
80314
80295
80296
80306
80310
80314
80321
80336
80340
80344
80344
80338
80356
80336
80341
80342
80328
80326
80328
80338
80337
80331
80319
80289
80239
80254
80224
80234
80211
80245
80229
80263
80275
80268
80284
80282
80282
80280
80269
80267
80278
80274
80275
80307
80288
80280
80255
80212
80192
80156
80142
80130
80140
80167
80170
80183
80206
80203
80217
80206
80205
80223
80220
80229
80212
80206
80239
80250
80241
80273
80249
80195
80174
80117
80115
80105
80102
80110
80120
80146
80147
80170
80179
80178
80164
80195
80191
80193
80221
80192
80190
80203
80215
80228
80239
80236
80202
80146
80120
80105
80099
80096
80110
80093
80111
80100
80120
80155
80143
80144
80153
80154
80176
80145
80162
80151
80162
80148
80182
80184
80199
80181
80142
80105
80073
80066
80080
80092
80114
80135
80130
80143
80182
80175
80183
80182
80184
80183
80202
80202
80218
80231
80207
80213
80229
80242
80221
80192
80163
80146
80112
80118
80126
80127
80134
80167
80185
80185
80190
80208
80213
80205
80189
80217
80219
80206
80215
80205
80234
80227
80228
80231
80230
80197
80145
80104
80095
80082
80088
80093
80087
80115
80125
80140
80172
80162
80151
80171
80156
80167
80184
80198
80196
80172
80196
80211
80222
80198
80141
80111
80075
80047
80072
80086
80077
80091
80091
80095
80112
80104
80117
80114
80121
80131
80129
80133
80169
80168
80164
80158
80180
80170
80116
80080
80058
80037
80027
80066
80042
80061
80080
80099
80127
80121
80138
80131
80126
80133
80143
80147
80138
80154
80159
80154
80172
80165
80182
80134
80065
80016
80030
80045
80037
80037
80064
80072
80082
80116
80122
80126
80148
80130
80096
80141
80140
80137
80133
80166
80142
80181
80156
80166
80142
80097
80080
80017
80025
80024
80019
80045
80046
80037
80081
80117
80119
80129
80108
80119
80145
80151
80175
80160
80188
80184
80184
80200
80212
80200
80196
80140
80102
80069
80093
80101
80109
80115
80132
80133
80168
80172
80160
80172
80201
80188
80195
80190
80190
80192
80179
80205
80213
80225
80222
80225
80218
80183
80152
80109
80096
80103
80088
80126
80145
80138
80172
80161
80179
80186
80168
80188
80165
80162
80184
80172
80189
80192
80192
80190
80189
80186
80112
80098
80034
79964
79879
79879
79935
79884
79825
79750
79678
79663
79586
79520
79507
79480
79496
79524
79523
79541
79530
79563
79578
79607
79622
79653
79664
79660
79690
79727
79736
79794
79835
79886
79897
79938
79984
80008
80005
80028
80021
80004
80021
80038
80063
80087
80124
80138
80184
80208
80177
80114
80080
80111
80121
80170
80271
80296
80392
80416
80433
80459
80458
80458
80460
80470
80464
80471
80475
80484
80471
80482
80468
80497
80494
80485
80486
80476
80474
80490
80478
80479
80485
80476
80481
80467
80491
80484
80472
80479
80488
80474
80471
80481
80468
80448
80461
80472
80471
80464
80457
80455
80466
80480
80472
80465
80455
80478
80453
80450
80454
80435
80382
80247
80091
79992
79946
79929
79845
79789
79738
79707
79604
79534
79491
79467
79397
79334
79277
79261
79251
79234
79225
79159
79137
79148
79169
79199
79228
79238
79225
79234
79238
79215
79211
79242
79218
79232
79241
79286
79297
79258
79262
79231
79237
79272
79303
79348
79376
79414
79416
79452
79478
79544
79619
79645
79658
79684
79679
79712
79763
79759
79811
79844
79839
79864
79890
79893
79890
79906
79924
79969
80024
80058
80116
80109
80130
80152
80208
80275
80275
80305
80294
80301
80341
80369
80382
80391
80382
80418
80432
80495
80498
80503
80487
80490
80477
80483
80486
80475
80488
80501
80500
80494
80504
80474
80491
80494
80469
80493
80490
80471
80480
80475
80474
80496
80485
80477
80485
80499
80485
80481
80492
80485
80489
80495
80513
80497
80498
80506
80479
80499
80501
80485
80480
80477
80475
80475
80489
80483
80484
80480
80474
80489
80488
80496
80496
80502
80490
80498
80503
80511
80502
80503
80501
80502
80505
80495
80499
80499
80499
80496
80477
80484
80477
80478
80476
80484
80468
80465
80478
80489
80502
80522
80521
80528
80510
80520
80512
80510
80509
80502
80486
80491
80480
80483
80461
80460
80453
80440
80436
80434
80420
80412
80403
80404
80390
80395
80420
80463
80475
80464
80461
80453
80418
80429
80422
80397
80392
80366
80357
80354
80346
80336
80321
80328
80313
80313
80302
80304
80301
80277
80284
80288
80309
80342
80377
80390
80405
80394
80356
80342
80326
80309
80294
80281
80243
80248
80229
80222
80210
80189
80190
80206
80225
80249
80292
80320
80333
80337
80315
80252
80069
79958
79879
79855
79802
79757
79799
79807
79822
79832
79848
79836
79855
79858
79853
79889
79882
79893
79895
79916
79907
79943
79952
79928
79875
79856
79879
79955
80080
80120
80137
80317
80359
80381
80386
80372
80379
80371
80366
80366
80348
80346
80307
80305
80282
80267
80261
80250
80253
80308
80358
80379
80376
80395
80382
80392
80403
80393
80400
80394
80401
80393
80389
80384
80393
80398
80400
80398
80391
80387
80380
80379
80370
80372
80378
80382
80413
80446
80445
80450
80430
80444
80413
80404
80404
80411
80402
80404
80402
80404
80409
80398
80408
80400
80388
80381
80383
80396
80386
80389
80391
80400
80407
80439
80458
80465
80456
80444
80448
80447
80447
80442
80419
80434
80427
80415
80409
80408
80413
80400
80401
80399
80395
80391
80375
80376
80367
80362
80389
80419
80445
80461
80463
80460
80458
80453
80438
80436
80420
80419
80412
80401
80388
80385
80363
80382
80389
80394
80391
80374
80382
80367
80373
80385
80427
80441
80483
80477
80479
80486
80470
80477
80475
80462
80465
80462
80453
80447
80441
80436
80434
80426
80428
80430
80414
80395
80389
80413
80417
80453
80476
80488
80486
80483
80473
80481
80482
80482
80483
80486
80474
80453
80464
80472
80468
80460
80467
80453
80451
80443
80442
80435
80429
80418
80427
80461
80493
80495
80477
80492
80488
80500
80477
80493
80494
80482
80482
80485
80470
80465
80481
80483
80465
80459
80460
80453
80453
80449
80438
80435
80438
80440
80474
80498
80487
80489
80483
80487
80469
80475
80470
80483
80476
80479
80483
80481
80468
80462
80459
80450
80469
80469
80460
80453
80459
80457
80458
80462
80477
80461
80470
80468
80466
80465
80452
80450
80452
80462
80457
80458
80445
80442
80450
80447
80449
80442
80435
80452
80444
80459
80435
80436
80418
80415
80426
80445
80439
80442
80462
80457
80445
80447
80461
80462
80454
80446
80444
80458
80441
80445
80438
80429
80425
80425
80398
80420
80408
80404
80396
80398
80413
80444
80455
80451
80448
80448
80444
80460
80445
80441
80440
80440
80441
80438
80438
80437
80432
80433
80425
80426
80428
80402
80411
80397
80398
80399
80414
80462
80450
80466
80448
80455
80456
80448
80459
80438
80440
80458
80447
80430
80443
80425
80430
80425
80432
80422
80421
80415
80408
80409
80399
80402
80431
80444
80447
80453
80462
80452
80469
80440
80466
80441
80447
80433
80451
80435
80430
80435
80435
80436
80424
80426
80413
80427
80419
80405
80414
80401
80402
80421
80434
80441
80453
80444
80458
80438
80446
80445
80446
80457
80427
80425
80442
80443
80443
80430
80435
80429
80421
80434
80434
80432
80424
80425
80442
80424
80426
80423
80437
80422
80430
80430
80415
80438
80439
80432
80425
80421
80418
80419
80404
80416
80407
80425
80418
80411
80412
80416
80408
80389
80382
80382
80368
80363
80357
80368
80400
80420
80429
80424
80431
80425
80401
80405
80401
80396
80351
80356
80341
80337
80327
80321
80320
80317
80281
80305
80296
80297
80281
80282
80267
80278
80322
80356
80377
80381
80390
80396
80381
80391
80381
80374
80349
80362
80354
80337
80338
80354
80342
80338
80334
80334
80328
80325
80323
80310
80290
80309
80347
80381
80392
80405
80409
80401
80394
80395
80398
80371
80355
80353
80344
80334
80344
80341
80329
80336
80330
80321
80319
80315
80309
80309
80302
80297
80320
80356
80397
80406
80412
80429
80421
80421
80410
80402
80388
80390
80377
80373
80360
80356
80364
80366
80364
80357
80354
80355
80345
80329
80327
80336
80312
80322
80325
80359
80403
80404
80405
80408
80407
80393
80384
80408
80418
80418
80417
80420
80416
80400
80397
80372
80367
80373
80350
80355
80358
80353
80354
80345
80342
80344
80340
80329
80323
80314
80327
80311
80313
80343
80366
80394
80408
80418
80387
80398
80403
80393
80392
80380
80363
80366
80347
80359
80352
80359
80352
80344
80343
80345
80344
80337
80327
80315
80317
80309
80304
80310
80347
80378
80381
80408
80400
80397
80395
80389
80355
80378
80354
80351
80341
80337
80338
80328
80336
80331
80324
80329
80329
80321
80320
80313
80309
80316
80311
80336
80359
80392
80374
80414
80404
80399
80380
80380
80389
80380
80367
80359
80326
80351
80355
80344
80343
80337
80342
80339
80321
80328
80329
80316
80313
80322
80357
80379
80394
80393
80394
80397
80415
80405
80383
80391
80390
80383
80377
80378
80369
80370
80369
80366
80350
80365
80359
80358
80360
80354
80354
80360
80378
80400
80404
80388
80419
80416
80406
80419
80397
80414
80408
80411
80400
80389
80389
80402
80407
80395
80386
80396
80387
80383
80381
80386
80353
80384
80386
80393
80411
80404
80404
80402
80413
80423
80404
80392
80409
80422
80405
80406
80414
80410
80398
80403
80412
80417
80402
80397
80386
80386
80388
80380
80379
80384
80385
80408
80407
80424
80416
80420
80405
80419
80408
80416
80404
80396
80408
80403
80400
80408
80413
80412
80405
80415
80407
80419
80401
80397
80398
80396
80400
80403
80376
80381
80411
80416
80421
80419
80402
80412
80425
80410
80420
80407
80412
80405
80401
80399
80391
80392
80384
80381
80371
80365
80364
80372
80361
80351
80354
80339
80349
80350
80351
80386
80404
80397
80416
80415
80412
80418
80380
80404
80385
80379
80368
80367
80361
80351
80350
80354
80347
80345
80333
80331
80329
80313
80311
80312
80301
80314
80337
80375
80390
80395
80398
80415
80404
80401
80387
80378
80360
80351
80325
80342
80344
80326
80330
80332
80330
80332
80324
80318
80312
80311
80305
80300
80330
80338
80390
80400
80403
80393
80395
80397
80393
80388
80396
80380
80377
80366
80350
80356
80356
80351
80347
80366
80353
80359
80366
80371
80362
80367
80368
80384
80399
80414
80419
80407
80433
80399
80413
80397
80418
80395
80404
80412
80410
80411
80401
80405
80408
80400
80416
80404
80394
80397
80382
80385
80396
80407
80412
80410
80418
80420
80422
80412
80413
80411
80420
80415
80414
80405
80405
80412
80399
80405
80408
80401
80407
80414
80413
80408
80408
80404
80416
80418
80402
80412
80395
80421
80410
80404
80411
80411
80415
80408
80405
80416
80404
80418
80413
80398
80408
80406
80404
80417
80421
80407
80402
80404
80415
80412
80405
80398
80398
80405
80423
80427
80406
80403
80405
80410
80414
80408
80413
80399
80415
80411
80399
80407
80420
80416
80416
80403
80399
80406
80398
80395
80407
80395
80390
80396
80372
80382
80375
80386
80390
80407
80400
80393
80411
80397
80390
80387
80398
80378
80391
80396
80385
80382
80376
80388
80385
80377
80370
80353
80358
80358
80352
80350
80340
80339
80338
80355
80383
80386
80390
80384
80391
80393
80398
80395
80389
80368
80369
80380
80375
80370
80379
80369
80369
80363
80361
80348
80351
80353
80353
80348
80348
80351
80369
80381
80383
80385
80391
80400
80387
80394
80397
80407
80373
80383
80392
80391
80386
80377
80374
80395
80391
80376
80380
80381
80382
80365
80369
80367
80372
80386
80399
80390
80411
80417
80408
80408
80390
80390
80403
80396
80399
80395
80383
80395
80397
80387
80413
80401
80396
80396
80379
80403
80381
80387
80386
80391
80396
80401
80407
80405
80405
80414
80418
80402
80400
80402
80415
80410
80406
80407
80404
80405
80393
80398
80393
80394
80402
80407
80401
80397
80386
80398
80392
80392
80390
80392
80411
80402
80400
80409
80398
80408
80423
80407
80411
80401
80405
80403
80404
80400
80404
80405
80415
80419
80399
80405
80400
80411
80393
80396
80394
80408
80398
80403
80402
80412
80407
80399
80402
80398
80401
80399
80405
80394
80395
80403
80398
80413
80407
80407
80407
80395
80405
80390
80394
80389
80395
80398
80386
80398
80392
80402
80386
80395
80392
80391
80400
80407
80405
80386
80406
80392
80404
80381
80398
80397
80408
80396
80401
80384
80390
80390
80400
80388
80390
80399
80386
80404
80392
80385
80387
80396
80390
80407
80403
80394
80391
80387
80386
80403
80398
80391
80390
80386
80402
80379
80396
80403
80396
80390
80393
80403
80397
80395
80386
80390
80373
80391
80387
80417
80397
80403
80409
80391
80392
80394
80399
80399
80389
80391
80389
80391
80404
80391
80401
80404
80396
80400
80397
80408
80395
80411
80415
80404
80397
80405
80387
80389
80409
80405
80386
80398
80401
80405
80403
80392
80404
80399
80398
80396
80399
80404
80396
80396
80395
80401
80398
80398
80392
80390
80400
80411
80402
80398
80396
80412
80392
80398
80404
80392
80405
80399
80401
80405
80413
80401
80390
80421
80404
80403
80400
80379
80405
80412
80386
80410
80401
80391
80387
80402
80393
80399
80390
80386
80397
80396
80391
80390
80399
80393
80397
80390
80391
80408
80385
80394
80394
80408
80402
80397
80399
80385
80395
80392
80407
80388
80381
80386
80389
80397
80387
80386
80389
80392
80387
80380
80386
80382
80394
80370
80390
80382
80384
80383
80393
80378
80379
80378
80388
80380
80389
80392
80377
80386
80385
80371
80394
80385
80372
80386
80383
80391
80399
80379
80339
80346
80295
80309
80312
80287
80298
80286
80257
80262
80239
80230
80230
80215
80212
80218
80195
80184
80191
80198
80186
80183
80179
80184
80212
80121
80107
80007
79991
79988
80022
80011
80007
80015
80030
80047
80025
80036
80018
80021
80008
80003
79980
79943
79889
79863
79812
79805
79782
79781
79677
79542
79192
79048
79008
78964
78998
79108
79163
79227
79268
79301
79311
79358
79372
79373
79381
79367
79358
79378
79393
79396
79419
79399
79346
79296
79234
79176
79026
78866
78823
78744
78690
78698
78683
78721
78779
78844
78886
78988
79048
79043
79076
79103
79136
79149
79172
79179
79162
79160
79166
79127
79136
79081
79023
78929
78847
78804
78774
78744
78758
78776
78790
78818
78851
78871
78894
78871
78876
78883
78871
78852
78838
78841
78844
78868
78888
78912
78913
78930
78907
78863
78797
78760
78744
78749
78741
78752
78761
78788
78809
78830
78868
78903
78906
78889
78889
78881
78866
78871
78897
78918
78933
78931
78957
78941
78883
78831
78746
78750
78742
78740
78773
78802
78823
78836
78872
78913
78921
78918
78937
78942
78940
78959
78931
78954
78989
78970
78965
79010
78987
78933
78883
78828
78797
78785
78805
78835
78833
78870
78897
78931
78960
79003
79003
79007
79006
79024
79010
79005
79038
79002
78992
78985
78976
78919
78815
78777
78730
78715
78728
78750
78761
78782
78800
78835
78863
78885
78891
78896
78881
78871
78874
78854
78869
78872
78874
78862
78814
78728
78630
78575
78571
78569
78574
78589
78605
78637
78645
78647
78681
78705
78723
78730
78738
78767
78770
78785
78817
78837
78807
78841
78846
78784
78670
78564
78514
78493
78486
78501
78515
78573
78603
78656
78670
78694
78699
78721
78753
78799
78824
78876
78928
78955
78975
78984
78989
78939
78884
78829
78816
78793
78841
78869
78884
78924
78947
78997
79028
79042
79045
79092
79119
79144
79179
79203
79240
79223
79228
79198
79135
79084
79010
78972
78953
78953
78936
78908
78873
78818
78786
78761
78752
78724
78722
78693
78677
78671
78651
78638
78620
78639
78635
78558
78479
78385
78362
78351
78370
78429
78474
78518
78565
78619
78667
78725
78743
78758
78773
78811
78835
78877
78911
78958
78968
78926
78888
78824
78775
78780
78828
78854
78861
78860
78851
78858
78872
78828
78822
78784
78761
78730
78675
78635
78593
78613
78571
78502
78420
78357
78332
78356
78364
78371
78373
78404
78391
78417
78426
78440
78454
78447
78472
78518
78534
78559
78588
78581
78595
78621
78584
78523
78476
78450
78430
78451
78479
78517
78553
78575
78615
78662
78692
78676
78720
78731
78732
78756
78734
78778
78804
78793
78792
78770
78717
78663
78646
78640
78675
78696
78713
78752
78774
78808
78813
78838
78839
78839
78850
78871
78813
78799
78764
78752
78728
78685
78640
78575
78559
78541
78543
78557
78587
78604
78625
78681
78709
78726
78727
78730
78746
78761
78748
78720
78689
78658
78594
78505
78476
78436
78426
78419
78439
78386
78401
78461
78521
78565
78599
78586
78598
78619
78608
78630
78608
78617
78612
78581
78505
78443
78383
78372
78367
78397
78434
78543
78648
78681
78710
78759
78796
78832
78857
78882
78896
78909
78944
78966
78967
78958
78883
78866
78858
78810
78822
78833
78865
78860
78882
78908
78935
78945
78968
78964
78994
79000
79002
79016
79036
79067
79049
79016
78980
78973
78988
78985
79026
79049
79091
79149
79182
79194
79231
79275
79289
79287
79327
79343
79366
79373
79387
79399
79350
79315
79277
79272
79292
79300
79347
79334
24497
24467
24417
24417
24401
24364
24341
24352
24342
24316
79475
79472
79461
79394
79339
79312
79293
79298
79313
79359