14,34,-23
-25897,-30669,114
0,30472,17920
-20,31304,20352
108,8259,16388
134,100,127
133,108,125
132,116,120
128,126,113
122,130,107
108,138,99
101,140,88
90,143,81
83,142,71
74,141,63
68,136,51
62,131,43
57,124,38
47,118,28
38,107,24
36,97,22
27,89,19
21,89,16
17,83,18
12,80,19
7,80,19
4,78,23
0,76,23
-5,70,24
-15,64,29
-24,58,34
-22,47,35
-24,38,36
-25,27,41
-26,21,45
-24,12,46
-21,7,47
-14,2,53
-10,1,53
-11,0,58
-13,-1,64
-13,1,70
-16,1,68
-16,4,69
-19,3,67
-18,10,69
-23,15,65
-25,17,62
-31,19,56
-32,21,53
-37,19,44
-40,18,37
-48,11,30
-51,13,22
-56,8,13
-61,9,10
-63,10,4
-65,11,-2
-68,10,-7
-71,9,-13
-72,7,-13
-75,5,-13
-77,6,-16
-74,4,-14
-76,6,-11
-79,7,-7
-80,12,-5
-82,12,-2
-80,12,7
-81,17,8
-79,18,16
-77,19,22
-75,20,24
-72,23,29
-65,17,35
-59,11,37
-51,9,43
-43,6,54
-32,5,64
-22,3,73
-10,7,88
-2,10,103
4,22,121
9,32,142
9,46,159
7,68,176
4,91,196
-3,111,211
-5,135,223
-8,160,236
-10,184,246
-13,211,253
-11,238,264
-10,260,268
-13,286,274
-17,309,280
-22,333,283
-27,359,287
-35,386,286
-42,413,288
-51,436,289
-58,458,290
-67,478,293
-68,498,293
-72,512,295
-83,530,297
-89,547,297
-88,556,299
-88,559,300
-96,564,306
-99,562,314
-107,568,325
-113,573,333
-110,576,345
-110,579,352
-102,591,363
-98,595,374
-90,606,384
-80,613,394
-70,621,406
-68,623,409
-72,625,417
-72,622,426
-80,621,430
-89,617,440
-97,614,441
-103,610,447
-106,600,453
-103,593,460
-100,584,469
-92,579,478
-85,577,488
-84,573,507
-83,573,516
-91,578,531
-97,584,548
-103,584,562
-106,587,571
-108,589,581
-103,586,587
-102,586,589
-91,575,593
-87,563,593
-79,548,591
-73,522,590
-69,492,587
-71,458,580
-83,420,571
-105,373,560
-129,328,550
-160,286,536
-195,268,523
-234,255,507
-267,247,488
-298,244,470
-320,244,449
-338,241,428
-349,236,406
-358,223,382
-363,202,360
-368,173,340
-371,138,311
-377,92,289
-392,38,266
-415,-26,247
-447,-94,219
-481,-157,199
-512,-203,175
-541,-218,153
-578,-212,139
-609,-193,125
-639,-169,109
-669,-145,101
-694,-126,95
-709,-109,93
-715,-93,92
-717,-83,92
-711,-80,87
-689,-82,82
-659,-98,79
-625,-125,71
-601,-162,67
-593,-206,61
-591,-251,53
-599,-290,45
-609,-325,38
-623,-354,30
-631,-376,20
-643,-400,13
-648,-423,1
-645,-447,-8
-639,-471,-18
-626,-500,-31
-609,-531,-40
-588,-568,-52
-565,-607,-58
-533,-645,-67
-513,-676,-70
-501,-694,-77
-500,-698,-75
-503,-678,-69
-514,-642,-64
-525,-593,-57
-535,-539,-48
-543,-485,-35
-542,-431,-26
-542,-374,-16
-536,-327,-2
-525,-282,12
-505,-245,21
-482,-215,29
-443,-199,34
-398,-196,49
-348,-203,55
-299,-220,66
-248,-238,77
-199,-253,89
-160,-258,101
-129,-257,112
-110,-250,123
-96,-236,137
-86,-220,149
-83,-202,163
-85,-184,174
-92,-165,187
-104,-150,201
-117,-136,212
-125,-128,224
-128,-120,232
-125,-126,237
-107,-138,248
-93,-144,256
-64,-152,263
-37,-151,266
-7,-139,276
21,-128,282
50,-105,290
77,-78,300
104,-48,311
128,-13,323
151,18,331
172,55,347
187,86,361
196,116,378
192,136,390
189,157,402
189,172,411
183,182,421
172,189,431
158,190,433
154,187,430
152,177,427
158,161,416
170,153,407
185,139,400
199,135,390
215,131,380
231,123,374
247,118,366
261,108,364
273,102,367
286,95,365
295,90,371
300,82,379
304,69,386
304,59,392
299,43,398
292,28,401
292,11,404
292,-3,400
296,-17,400
299,-28,391
303,-40,386
303,-50,375
302,-59,370
298,-65,361
291,-69,357
290,-71,350
285,-63,345
282,-57,342
276,-50,332
270,-44,330
265,-40,328
263,-36,328
265,-33,323
268,-36,319
273,-43,314
285,-50,304
294,-61,300
304,-73,292
303,-82,288
302,-89,286
299,-95,283
295,-102,281
288,-108,283
280,-112,282
263,-113,282
246,-110,282
222,-111,283
203,-107,279
181,-104,277
165,-96,269
145,-86,262
130,-82,252
120,-79,241
117,-74,227
117,-72,215
118,-70,205
120,-77,195
123,-76,181
129,-86,173
134,-92,170
138,-97,166
145,-107,169
147,-118,170
151,-132,176
153,-145,181
162,-150,186
166,-159,186
166,-158,187
168,-160,190
172,-154,182
180,-152,177
187,-156,168
197,-154,161
205,-156,153
208,-158,146
207,-162,141
206,-166,138
200,-171,133
196,-177,128
193,-185,128
185,-198,128
182,-205,129
178,-215,132
178,-226,134
179,-235,138
183,-240,136
189,-250,135
191,-254,140
194,-254,143
194,-252,143
183,-246,144
176,-245,148
167,-244,148
158,-245,148
150,-245,149
144,-247,149
139,-247,145
137,-250,143
140,-257,144
148,-264,135
163,-271,132
182,-275,117
201,-279,109
229,-281,96
246,-285,91
262,-286,87
278,-284,82
287,-282,83
294,-279,86
295,-275,88
299,-272,94
300,-268,95
299,-266,103
303,-258,108
308,-258,112
314,-250,115
322,-248,119
327,-244,120
333,-240,122
340,-236,126
340,-230,132
339,-225,136
333,-218,140
323,-211,146
311,-201,153
296,-198,157
278,-185,167
264,-174,176
251,-165,179
240,-155,184
231,-149,191
224,-142,192
223,-135,193
229,-130,192
237,-127,191
242,-128,194
251,-129,194
264,-131,192
277,-133,193
286,-128,191
293,-125,198
298,-123,197
305,-121,201
308,-125,205
309,-126,209
309,-131,214
306,-132,219
295,-140,220
285,-142,220
277,-145,221
265,-147,217
254,-147,216
241,-145,214
238,-140,211
229,-137,206
227,-135,199
222,-129,194
224,-125,188
223,-118,182
229,-108,177
234,-101,171
236,-93,163
235,-84,157
239,-77,156
238,-69,151
240,-64,152
239,-59,151
242,-57,152
239,-56,148
238,-54,142
237,-49,141
236,-47,135
236,-43,135
236,-42,125
235,-35,120
233,-32,115
234,-29,102
232,-23,92
231,-21,82
229,-23,75
232,-24,64
233,-27,55
233,-31,48
240,-33,43
247,-37,35
255,-44,27
259,-47,22
267,-50,21
275,-56,19
279,-62,20
285,-73,21
285,-84,22
283,-92,23
282,-103,25
276,-115,32
272,-120,35
267,-129,39
257,-137,42
252,-138,45
241,-144,43
239,-138,43
230,-134,38
229,-134,35
225,-125,30
222,-117,26
216,-109,24
216,-101,20
211,-96,18
201,-94,15
193,-92,18
182,-94,20
170,-89,19
156,-82,19
143,-79,20
133,-72,14
132,-74,7
132,-77,1
128,-86,-4
131,-92,-7
131,-95,-15
128,-99,-18
132,-105,-23
134,-103,-25
137,-109,-33
142,-110,-34
145,-115,-36
148,-119,-36
148,-124,-40
153,-130,-45
152,-136,-50
157,-144,-56
161,-153,-61
169,-160,-66
178,-173,-74
186,-181,-82
195,-181,-88
203,-183,-94
206,-181,-101
209,-179,-108
211,-170,-113
210,-162,-114
208,-154,-120
205,-141,-125
205,-133,-128
204,-118,-131
208,-107,-134
211,-98,-136
208,-91,-135
211,-83,-131
214,-81,-126
214,-79,-124
214,-74,-121
220,-74,-117
221,-73,-112
225,-72,-107
231,-71,-107
238,-70,-94
245,-66,-89
253,-58,-82
263,-50,-74
275,-43,-61
287,-33,-51
300,-22,-38
322,-9,-31
352,6,-18
390,19,-1
433,44,8
487,71,30
550,98,57
621,122,83
699,152,112
782,178,151
864,206,188
945,236,232
1024,267,275
1098,300,324
1166,333,370
1228,372,408
1288,409,449
1341,448,481
1393,483,508
1439,514,533
1483,545,555
1526,569,574
1567,588,590
1604,610,600
1642,625,607
1687,632,607
1732,631,607
1777,629,612
1812,623,614
1835,620,620
1851,620,625
1863,616,627
1860,611,628
1856,603,627
1843,597,622
1826,589,616
1800,578,601
1773,567,584
1746,558,559
1708,553,530
1675,543,496
1642,538,458
1609,528,422
1578,524,380
1546,525,342
1513,525,303
1486,532,270
1458,536,242
1434,543,212
1414,540,182
1394,542,149
1382,536,116
1373,526,81
1364,514,44
1358,493,4
1351,468,-35
1345,447,-75
1341,431,-111
1341,423,-143
1340,416,-177
1341,413,-204
1342,414,-227
1339,418,-247
1337,426,-264
1332,431,-274
1328,433,-282
1324,439,-290
1321,438,-292
1321,436,-291
1326,434,-294
1344,431,-292
1374,429,-288
1422,429,-289
1486,428,-282
1571,429,-267
1671,429,-246
1786,431,-216
1897,436,-179
2008,443,-142
2107,455,-103
2201,469,-60
2284,486,-14
2353,496,34
2415,508,84
2465,526,130
2505,542,182
2538,558,230
2567,578,273
2601,598,311
2633,615,340
2664,627,370
2695,637,401
2722,642,434
2745,642,465
2762,646,491
2774,649,520
2778,658,538
2784,660,557
2786,663,563
2779,662,567
2767,661,564
2754,659,563
2736,663,554
2711,672,545
2690,682,530
2672,696,513
2646,707,497
2618,717,484
2587,716,470
2546,714,466
2503,710,451
2461,697,432
2414,684,409
2364,671,385
2314,660,354
2258,654,325
2214,639,294
2174,623,263
2145,605,227
2123,577,195
2106,542,163
2083,513,134
2053,484,110
2016,445,100
1971,402,93
1912,356,98
1844,310,103
1771,277,115
1689,252,123
1609,239,132
1530,233,136
1462,226,139
1407,228,142
1359,231,142
1318,238,139
1285,248,137
1249,259,133
1208,270,133
1164,289,132
1116,301,138
1060,316,141
1009,331,143
963,345,146
935,354,145
922,364,137
930,366,120
956,371,102
982,379,84
1009,384,66
1036,384,53
1058,377,40
1084,357,34
1100,322,33
1107,279,35
1110,230,41
1101,184,47
1089,144,56
1070,108,60
1051,78,66
1040,50,60
1032,28,58
1030,14,48
1033,-2,35
1039,-13,23
1046,-24,18
1060,-36,9
1072,-49,4
1081,-64,2
1092,-72,0
1104,-83,-3
1109,-98,-4
1119,-110,-12
1122,-115,-16
1123,-119,-19
1116,-121,-20
1104,-118,-21
1089,-119,-24
1069,-115,-25
1048,-113,-31
1023,-116,-37
996,-111,-39
974,-107,-48
951,-103,-51
939,-92,-59
934,-78,-70
935,-64,-84
946,-39,-93
964,-5,-107
989,31,-120
1012,69,-125
1040,116,-140
1066,167,-143
1096,209,-140
1117,255,-142
1134,295,-138
1145,344,-130
1147,379,-127
1148,415,-122
1135,444,-121
1122,463,-122
1105,473,-125
1087,470,-135
1067,470,-144
1045,461,-154
1019,453,-163
999,455,-175
982,463,-185
968,482,-200
958,506,-216
953,539,-224
948,572,-238
949,607,-244
945,643,-254
942,675,-264
938,701,-268
931,721,-275
923,734,-281
909,739,-286
890,734,-295
869,722,-300
847,712,-305
821,701,-309
799,693,-312
773,687,-319
751,686,-318
731,682,-320
708,683,-323
689,688,-322
667,690,-317
644,697,-313
624,696,-309
599,699,-303
579,697,-298
553,691,-290
536,685,-283
523,674,-276
509,665,-272
500,657,-272
496,650,-275
487,645,-273
485,636,-277
488,635,-280
495,632,-287
502,632,-295
512,630,-296
517,626,-300
518,623,-294
519,616,-291
516,606,-283
509,590,-274
505,568,-258
496,547,-238
486,521,-223
474,493,-199
452,462,-178
437,432,-156
421,407,-133
407,377,-110
393,348,-83
379,321,-59
368,295,-37
359,266,-13
348,242,7
336,220,24
330,199,40
322,181,55
312,162,69
302,148,78
294,133,90
285,127,94
280,113,98
271,110,102
265,105,105
256,104,108
247,111,111
238,116,109
230,124,116
220,137,116
209,151,124
204,161,127
197,172,132
191,179,137
183,185,141
174,190,145
159,192,148
145,188,148
130,184,150
109,176,149
89,172,150
67,162,149
48,155,145
28,146,144
11,140,137
-4,132,128
-16,125,125
-23,123,117
-24,114,109
-24,112,96
-19,107,85
-13,100,75
-4,96,69
0,95,56
8,91,48
20,81,39
32,76,33
43,71,28
51,66,22
55,66,19
56,64,19
47,69,19
41,75,24
30,80,28
17,90,34
2,101,36
0,112,38
-1,125,35
6,140,33
19,154,34
22,167,34
25,177,37
28,184,40
29,192,42
32,203,44
32,210,52
36,214,56
30,221,59
28,225,65
23,231,72
18,236,78
12,242,86
10,246,94
8,245,102
4,248,112
0,246,121
-9,243,129
-17,238,142
-25,234,151
-33,232,164
-42,229,175
-50,227,188
-59,232,204
-63,235,218
-65,246,233
-64,256,248
-64,269,259
-63,281,270
-60,287,285
-60,298,294
-62,300,306
-68,302,318
-72,300,331
-79,294,344
-90,284,354
-103,271,367
-123,259,384
-142,243,398
-166,230,410
-188,218,425
-212,207,435
-233,198,447
-260,196,458
-281,196,469
-301,194,475
-322,197,481
-342,200,491
-356,199,492
-367,202,496
-381,203,494
-394,209,498
-405,210,496
-412,215,497
-421,217,499
-430,219,498
-437,215,505
-446,215,503
-454,213,513
-466,208,521
-474,199,530
-481,186,544
-503,176,561
-525,165,581
-551,150,604
-576,138,616
-603,123,633
-627,108,642
-643,91,642
-646,73,630
-642,49,611
-638,21,593
-628,-11,577
-627,-52,559
-626,-98,543
-632,-153,529
-639,-215,514
-649,-280,497
-659,-357,483
-675,-437,470
-686,-518,457
-696,-599,442
-697,-676,429
-696,-747,415
-695,-802,396
-690,-841,381
-683,-866,365
-676,-870,347
-671,-856,331
-666,-826,312
-658,-781,301
-657,-724,288
-653,-663,271
-650,-595,261
-649,-526,251
-649,-466,247
-655,-415,242
-660,-375,241
-672,-354,241
-683,-342,240
-691,-351,236
-696,-369,228
-704,-401,221
-707,-442,208
-701,-494,194
-698,-553,181
-692,-618,158
-685,-682,147
-673,-742,128
-658,-796,110
-648,-846,100
-637,-893,94
-633,-932,83
-628,-964,77
-619,-987,73
-614,-1002,64
-602,-1011,60
-592,-1009,47
-585,-1004,37
-574,-992,22
-567,-976,9
-559,-951,-5
-552,-932,-19
-543,-912,-36
-534,-886,-51
-521,-861,-69
-515,-839,-82
-502,-814,-99
-492,-792,-114
-478,-770,-129
-469,-741,-144
-456,-714,-157
-445,-691,-165
-438,-661,-177
-426,-639,-185
-418,-615,-195
-408,-590,-205
-398,-570,-217
-394,-551,-225
-391,-532,-235
-392,-514,-249
-386,-502,-263
-375,-497,-285
-375,-491,-303
-375,-495,-325
-379,-502,-344
-387,-514,-358
-397,-527,-373
-408,-546,-393
-418,-567,-409
-427,-588,-425
-436,-615,-442
-444,-637,-457
-447,-658,-469
-448,-685,-485
-445,-704,-500
-441,-711,-517
-438,-727,-532
-435,-729,-545
-430,-733,-551
-429,-731,-558
-431,-730,-557
-434,-720,-554
-439,-712,-547
-443,-703,-540
-454,-690,-536
-464,-679,-529
-474,-671,-528
-489,-661,-531
-497,-656,-531
-509,-653,-536
-518,-643,-542
-522,-637,-549
-529,-625,-560
-535,-605,-568
-536,-587,-579
-537,-564,-585
-534,-539,-596
-530,-514,-606
-521,-488,-620
-513,-462,-629
-502,-442,-639
-493,-421,-652
-485,-403,-658
-476,-387,-668
-466,-375,-674
-460,-362,-678
-457,-351,-680
-452,-339,-681
-447,-328,-681
-446,-311,-686
-443,-299,-683
-446,-278,-682
-444,-264,-678
-443,-243,-677
-446,-227,-676
-447,-208,-669
-445,-193,-665
-442,-185,-657
-448,-176,-650
-453,-175,-639
-454,-171,-633
-453,-174,-624
-453,-179,-622
-452,-194,-616
-453,-210,-614
-448,-226,-617
-439,-234,-624
-425,-240,-630
-415,-230,-638
-407,-210,-648
-400,-188,-654
-389,-161,-663
-380,-127,-676
-365,-87,-688
-342,-51,-698
-321,-16,-706
-296,14,-721
-273,41,-733
-245,67,-753
-216,83,-767
-185,93,-782
-156,105,-799
-124,107,-816
-93,111,-828
-64,110,-844
-41,111,-857
-15,111,-866
5,111,-871
23,113,-872
31,114,-872
35,116,-872
35,121,-863
31,120,-853
23,122,-840
9,123,-826
-4,121,-806
-18,120,-793
-32,116,-774
-48,111,-757
-57,106,-741
-74,97,-722
-87,87,-705
-104,75,-691
-111,61,-682
-114,49,-672
-116,39,-663
-116,28,-660
-111,26,-655
-106,27,-652
-103,24,-646
-98,31,-641
-99,34,-636
-93,35,-636
-93,33,-630
-90,27,-630
-81,14,-624
-74,-4,-623
-65,-20,-619
-55,-42,-609
-40,-69,-597
-26,-93,-586
-11,-117,-571
3,-139,-555
15,-167,-543
31,-203,-525
47,-233,-504
65,-253,-490
79,-275,-470
91,-296,-452
103,-317,-427
112,-341,-405
121,-360,-382
130,-369,-354
133,-374,-329
138,-376,-300
137,-378,-269
128,-376,-240
114,-372,-208
102,-363,-176
90,-353,-145
73,-331,-110
55,-311,-77
41,-287,-46
32,-266,-21
30,-243,1
24,-222,22
11,-198,47
-1,-176,67
-13,-158,93
-23,-138,113
-33,-115,139
-46,-96,154
-55,-75,174
-62,-60,190
-70,-43,205
-78,-26,220
-80,-16,231
-83,-5,242
-83,12,251
-82,22,255
-79,29,259
-74,36,263
-71,43,265
-66,44,266
-69,48,267
-70,47,267
-76,43,271
-83,37,271
-90,25,274
-100,12,281
-104,-7,288
-106,-18,297
-102,-30,304
-99,-41,308
-89,-49,311
-78,-58,317
-66,-63,321
-47,-70,325
-36,-69,332
-19,-71,334
-4,-71,340
10,-65,344
18,-59,346
30,-49,353
38,-36,357
48,-24,361
58,-16,369
66,-5,373
75,10,384
84,21,388
94,37,396
107,51,398
120,66,402
137,83,405
153,106,401
170,123,404
188,142,407
202,160,408
217,178,409
236,194,407
251,208,407
261,230,403
272,243,410
278,257,413
286,270,416
297,280,415
307,287,422
318,294,425
321,294,428
331,298,433
339,301,441
346,306,449
350,313,458
350,324,468
349,337,482
348,345,496
353,357,502
359,365,511
360,379,526
362,396,546
356,415,562
353,429,586
342,447,606
328,461,627
308,476,646
284,490,669
256,497,685
232,501,698
202,503,708
180,509,719
157,509,723
138,505,724
116,498,723
103,496,716
93,483,711
87,480,700
84,470,684
84,468,668
83,465,655
89,461,642
85,452,624
87,458,614
97,467,604
98,467,591
106,467,581
109,466,573
109,462,562
111,452,553
112,436,543
115,423,535
120,403,525
121,383,522
129,358,512
138,330,506
143,309,495
152,285,488
156,262,480
159,247,477
162,231,466
163,215,461
163,204,452
165,197,448
159,189,438
154,180,431
151,171,421
147,169,412
145,157,399
145,151,389
147,141,376
152,133,362
150,121,348
157,108,335
161,100,325
162,93,310
168,79,299
172,69,288
174,60,279
175,54,267
171,48,255
175,45,248
174,38,234
175,31,223
174,24,210
176,16,197
181,5,186
187,-1,173
196,-11,157
211,-24,145
223,-34,132
236,-44,122
246,-54,114
238,-53,111
233,-61,109
219,-65,114
201,-69,120
178,-77,129
156,-85,135
136,-90,141
121,-97,148
108,-108,150
101,-116,149
97,-128,140
95,-138,134
97,-150,122
98,-157,113
101,-165,106
103,-173,100
105,-178,92
105,-183,87
108,-189,88
105,-193,82
108,-195,83
107,-204,79
110,-210,73
110,-208,66
115,-215,57
113,-218,51
116,-224,41
118,-233,33
119,-232,29
119,-242,23
117,-249,14
117,-252,8
119,-258,4
115,-259,2
113,-257,-7
106,-257,-13
98,-258,-18
95,-248,-19
88,-245,-20
78,-237,-18
70,-235,-13
63,-235,-2
57,-227,8
54,-230,13
51,-229,18
53,-228,24
52,-228,20
55,-228,21
60,-230,23
64,-233,24
70,-234,24
77,-239,18
81,-244,19
87,-246,15
92,-255,21
95,-259,19
98,-265,22
98,-270,24
96,-272,28
92,-268,32
87,-267,43
82,-266,49
78,-261,56
76,-251,59
77,-245,63
74,-232,63
77,-217,63
81,-200,58
90,-188,57
98,-179,53
108,-171,45
115,-166,40
120,-168,41
123,-170,44
125,-177,43
120,-184,43
118,-186,41
115,-189,42
105,-190,46
97,-193,44
88,-193,42
80,-189,41
77,-184,41
70,-179,38
69,-174,38
65,-164,32
64,-154,27
64,-142,26
63,-129,20
61,-112,20
65,-97,15
66,-84,13
66,-71,11
68,-62,10
68,-51,9
70,-40,8
70,-38,7
73,-32,3
78,-28,0
80,-29,6
85,-30,1
87,-32,1
91,-33,0
92,-35,0
88,-34,-2
91,-38,1
89,-40,-1
89,-43,5
86,-39,1
82,-36,6
81,-36,6
76,-31,4
80,-28,5
83,-19,4
85,-12,5
88,-3,5
95,6,6
100,15,0
102,21,0
110,26,3
118,34,5
126,35,5
132,36,7
137,38,10
146,41,12
150,47,10
152,53,12
157,56,10
157,70,9
161,80,9
160,89,9
158,92,13
157,101,17
152,109,22
149,117,28
150,126,37
148,135,42
147,146,49
149,165,57
156,182,55
165,198,60
180,217,59
195,227,62
209,237,69
222,248,77
228,255,86
234,263,95
242,270,104
244,282,114
250,294,124
257,312,131
256,332,138
260,359,142
263,382,147
266,405,149
274,426,148
278,447,152
287,470,150
293,487,148
302,513,150
304,539,155
310,567,156
316,596,160
314,633,158
324,669,162
329,705,168
335,746,169
344,786,169
353,824,170
363,859,173
369,893,169
378,927,173
386,956,176
394,986,174
395,1019,175
402,1043,176
404,1071,177
404,1096,182
404,1124,179
398,1145,184
395,1166,184
389,1184,193
387,1198,192
378,1217,197
374,1230,202
373,1235,203
372,1243,203
376,1245,202
377,1249,203
378,1246,200
377,1246,199
375,1246,197
373,1249,195
369,1255,190
363,1258,188
356,1266,184
343,1272,183
335,1282,178
325,1293,176
318,1303,171
309,1311,162
302,1319,151
301,1328,142
299,1332,135
295,1334,127
294,1343,121
289,1349,114
284,1357,117
279,1359,111
271,1365,103
260,1372,101
255,1380,97
254,1386,88
258,1385,76
256,1390,63
257,1389,59
251,1388,48
245,1391,46
235,1388,41
227,1389,37
217,1386,33
206,1379,33
195,1373,28
183,1368,23
176,1362,16
163,1351,14
158,1341,10
151,1336,7
148,1330,0
145,1326,-1
145,1320,0
142,1313,0
137,1308,-1
132,1301,-2
128,1292,-3
122,1287,-5
117,1276,-2
112,1264,-4
111,1255,-7
111,1244,-9
112,1233,-16
111,1227,-20
117,1218,-28
120,1215,-34
124,1207,-44
134,1195,-56
139,1184,-57
146,1168,-70
147,1156,-80
152,1144,-86
151,1132,-94
151,1121,-101
148,1111,-107
148,1102,-118
148,1097,-125
149,1087,-136
149,1081,-147
152,1075,-152
162,1071,-164
168,1062,-174
178,1058,-186
190,1049,-194
203,1046,-203
219,1044,-208
237,1039,-212
248,1029,-217
266,1024,-220
281,1015,-221
294,1007,-220
310,998,-219
327,991,-216
342,984,-211
359,979,-213
374,973,-212
387,971,-207
401,969,-205
414,964,-202
423,960,-197
428,953,-194
432,947,-189
438,944,-191
441,940,-191
446,933,-189
448,926,-190
453,912,-198
457,901,-200
457,886,-203
451,867,-205
440,841,-199
424,823,-190
401,798,-181
375,775,-175
358,754,-169
337,726,-163
317,704,-162
300,680,-157
284,659,-155
267,637,-151
255,613,-147
239,598,-142
223,579,-137
206,561,-131
192,537,-122
170,520,-114
155,501,-107
135,483,-99
120,465,-91
105,449,-83
89,436,-79
87,427,-75
80,420,-73
80,413,-72
85,408,-68
86,403,-65
96,401,-69
101,393,-68
110,393,-72
116,383,-71
122,375,-71
123,362,-71
122,349,-68
123,329,-65
117,311,-65
106,290,-63
100,266,-60
87,242,-59
79,214,-60
71,187,-61
57,156,-58
48,129,-58
43,99,-58
34,70,-58
29,42,-58
25,9,-54
24,-23,-57
21,-59,-58
20,-97,-55
22,-137,-55
13,-183,-53
5,-228,-51
0,-278,-47
-8,-327,-46
-22,-373,-42
-35,-427,-39
-48,-476,-35
-58,-530,-31
-72,-578,-33
-91,-625,-31
-106,-670,-27
-118,-719,-31
-128,-764,-32
-144,-808,-31
-158,-852,-32
-174,-892,-35
-187,-931,-32
-195,-976,-33
-207,-1020,-35
-219,-1065,-37
-228,-1110,-39
-238,-1157,-39
-254,-1200,-39
-265,-1241,-39
-275,-1278,-38
-288,-1314,-38
-302,-1342,-31
-315,-1370,-30
-326,-1398,-31
-334,-1423,-25
-343,-1442,-23
-353,-1465,-22
-360,-1490,-18
-361,-1515,-16
-359,-1543,-14
-360,-1568,-13
-355,-1595,-10
-348,-1620,-8
-342,-1650,-5
-333,-1671,-4
-327,-1699,0
-323,-1721,3
-316,-1745,7
-314,-1765,6
-306,-1785,10
-301,-1806,12
-296,-1824,14
-292,-1839,6
-285,-1853,0
-280,-1866,-14
-272,-1876,-23
-264,-1888,-37
-261,-1904,-50
-260,-1919,-60
-262,-1945,-69
-269,-1974,-80
-277,-2004,-82
-286,-2045,-87
-300,-2085,-90
-315,-2129,-88
-332,-2178,-84
-345,-2229,-78
-359,-2280,-74
-373,-2332,-64
-384,-2388,-60
-391,-2443,-52
-398,-2490,-41
-404,-2524,-33
-408,-2560,-29
-411,-2585,-18
-417,-2597,-12
-418,-2607,-8
-424,-2610,-6
-419,-2619,0
-416,-2622,4
-416,-2623,6
-411,-2619,14
-406,-2599,11
-409,-2572,9
-410,-2531,4
-409,-2487,2
-411,-2431,-8
-408,-2373,-14
-401,-2305,-20
-396,-2229,-33
-392,-2159,-36
-392,-2079,-42
-385,-2005,-48
-375,-1927,-52
-360,-1849,-55
-340,-1773,-59
-321,-1701,-63
-303,-1636,-63
-296,-1566,-66
-283,-1500,-69
-266,-1437,-70
-259,-1375,-72
-249,-1322,-73
-240,-1264,-72
-233,-1206,-68
-228,-1147,-66
-226,-1089,-59
-222,-1029,-57
-216,-970,-52
-207,-915,-50
-200,-858,-46
-190,-807,-39
-180,-755,-35
-166,-712,-30
-149,-671,-22
-133,-630,-14
-123,-591,-6
-113,-556,2
-103,-526,14
-103,-502,33
-105,-470,44
-109,-447,60
-115,-416,74
-120,-386,84
-123,-354,96
-119,-321,105
-116,-289,113
-106,-256,118
-94,-218,117
-82,-177,120
-73,-132,116
-61,-81,109
-49,-25,107
-40,34,100
-26,92,92
-14,152,84
0,212,78
5,272,71
-4,327,65
-17,375,60
-38,422,57
-61,463,46
-78,507,35
-97,549,25
-113,599,13
-120,637,6
-122,674,-5
-116,692,-14
-104,691,-26
-86,672,-30
-69,645,-38
-41,613,-48
-8,566,-65
31,508,-78
67,442,-86
89,367,-96
112,284,-94
130,196,-94
137,118,-87
143,65,-77
136,53,-64
115,85,-52
97,127,-39
79,179,-33
68,234,-40
67,273,-45
66,293,-54
69,288,-59
71,245,-69
78,164,-70
85,53,-78
90,-81,-86
89,-236,-96
97,-390,-102
97,-524,-118
85,-648,-127
66,-761,-138
46,-868,-146
32,-969,-150
30,-1061,-154
31,-1148,-158
40,-1220,-162
51,-1295,-167
63,-1374,-172
77,-1430,-180
97,-1468,-186
117,-1473,-188
134,-1451,-185
145,-1401,-171
151,-1311,-145
155,-1201,-111
146,-1076,-75
128,-940,-39
91,-821,-1
54,-710,34
12,-616,68
-28,-544,97
-80,-475,126
-135,-421,147
-182,-361,163
-219,-309,173
-236,-260,170
-234,-224,162
-212,-199,152
-182,-179,138
-146,-166,126
-109,-153,120
-77,-128,112
-47,-94,120
-22,-59,118
7,-28,132
29,-8,145
39,12,160
48,16,175
46,18,190
44,19,206
34,12,219
24,0,229
17,-17,238
10,-34,238
8,-61,234
11,-91,224
25,-128,208
36,-170,189
53,-215,168
75,-258,144
88,-304,121
97,-346,100
100,-388,83
93,-422,71
84,-454,58
63,-481,50
37,-501,42
9,-515,38
-21,-518,35
-46,-521,30
-65,-517,23
-79,-515,16
-84,-510,4
-95,-498,-6
-96,-486,-17
-98,-473,-28
-98,-460,-40
-100,-446,-42
-103,-434,-49
-107,-424,-56
-108,-409,-62
-115,-398,-64
-116,-378,-75
-119,-357,-81
-123,-343,-91
-124,-318,-96
-129,-296,-104
-126,-272,-108
-123,-248,-115
-120,-219,-123
-116,-194,-123
-109,-163,-129
-104,-129,-129
-99,-96,-131
-93,-55,-125
-87,-15,-122
-81,27,-119
-81,67,-116
-79,112,-112
-72,156,-107
-64,200,-100
-57,252,-100
-46,306,-94
-33,360,-91
-25,411,-85
-12,467,-88
1,523,-85
19,584,-90
36,651,-95
56,721,-99
72,800,-104
77,884,-110
71,950,-109
44,962,-91
4,932,-69
-36,921,-47
-74,940,-31
-100,923,-24
-109,843,-15
-100,739,-10
-69,631,-14
-20,516,-26
38,413,-43
102,343,-75
171,266,-105
230,159,-129
265,12,-134
273,-168,-117
259,-359,-80
224,-533,-31
195,-688,10
197,-836,20
213,-969,14
228,-1087,4
224,-1173,-5
214,-1233,-15
191,-1274,-25
169,-1317,-39
151,-1361,-57
147,-1397,-73
160,-1418,-92
172,-1415,-113
187,-1400,-138
202,-1379,-153
209,-1359,-170
203,-1339,-175
187,-1309,-180
158,-1278,-174
117,-1240,-168
85,-1201,-164
51,-1155,-158
26,-1097,-159
10,-1031,-163
-7,-971,-172
-8,-905,-178
-3,-843,-188
15,-781,-205
45,-729,-217
77,-679,-234
114,-629,-249
154,-584,-266
189,-542,-283
224,-512,-292
257,-484,-306
286,-467,-314
315,-456,-321
332,-448,-327
348,-443,-320
360,-445,-316
364,-448,-309
366,-455,-296
367,-467,-283
369,-484,-267
370,-506,-247
369,-533,-229
375,-562,-210
385,-599,-186
397,-627,-158
414,-657,-139
434,-681,-114
459,-700,-88
488,-712,-65
522,-722,-42
561,-728,-19
601,-727,4
641,-723,26
679,-719,50
718,-710,75
759,-706,107
798,-700,132
833,-694,157
860,-686,183
881,-685,212
901,-680,241
915,-678,269
930,-677,299
940,-677,326
953,-676,352
965,-682,383
975,-682,403
992,-681,430
1001,-676,453
1012,-671,478
1019,-660,500
1024,-642,527
1034,-630,548
1048,-618,560
1074,-604,578
1103,-596,590
1131,-593,604
1164,-592,616
1199,-599,633
1233,-607,650
1267,-614,664
1296,-627,681
1324,-645,705
1352,-673,727
1378,-703,756
1400,-740,788
1422,-779,824
1435,-825,864
1451,-874,902
1462,-918,944
1471,-955,987
1472,-980,1021
1472,-995,1054
1471,-1003,1087
1469,-1006,1118
1459,-1010,1149
1456,-1029,1185
1451,-1057,1222
1448,-1091,1257
1445,-1126,1292
1439,-1152,1326
1433,-1176,1358
1423,-1192,1389
1413,-1189,1423
1400,-1162,1445
1381,-1122,1460
1359,-1061,1472
1329,-1005,1478
1309,-960,1481
1284,-926,1485
1255,-894,1487
1218,-871,1492
1170,-860,1504
1118,-866,1516
1067,-876,1528
1022,-869,1532
987,-862,1531
966,-841,1522
963,-818,1506
976,-798,1480
1006,-772,1454
1040,-760,1421
1074,-757,1388
1101,-762,1364
1117,-767,1332
1123,-775,1301
1118,-784,1275
1104,-791,1243
1086,-798,1212
1059,-794,1178
1040,-794,1143
1025,-778,1100
1028,-759,1065
1040,-741,1020
1053,-717,972
1070,-697,930
1083,-690,885
1099,-688,844
1118,-685,799
1123,-680,765
1134,-682,733
1143,-686,700
1145,-689,675
1154,-686,657
1161,-670,633
1180,-646,606
1202,-624,575
1222,-611,539
1238,-606,497
1246,-615,454
1255,-633,414
1272,-657,367
1294,-686,318
1327,-705,266
1367,-723,213
1415,-737,168
1471,-750,122
1528,-761,84
1589,-776,63
1645,-796,52
1698,-815,53
1745,-836,57
1788,-860,60
1819,-880,69
1848,-898,77
1873,-903,81
1894,-907,79
1910,-903,75
1931,-901,65
1950,-887,54
1974,-868,35
2003,-848,23
2036,-827,11
2070,-811,-2
2106,-795,-17
2136,-784,-30
2160,-779,-45
2175,-774,-66
2189,-765,-92
2214,-749,-124
2251,-734,-165
2297,-715,-200
2344,-694,-234
2388,-670,-268
2427,-652,-292
2454,-629,-319
2477,-614,-339
2486,-599,-358
2487,-583,-370
2485,-561,-382
2483,-530,-389
2475,-499,-395
2466,-464,-404
2458,-430,-406
2451,-398,-406
2442,-380,-409
2434,-367,-409
2421,-360,-406
2409,-369,-401
2397,-381,-394
2386,-391,-388
2366,-398,-383
2338,-387,-381
2308,-366,-379
2277,-339,-382
2242,-305,-388
2197,-278,-395
2146,-259,-406
2088,-246,-420
2028,-244,-432
1959,-256,-451
1890,-284,-477
1821,-318,-509
1755,-355,-549
1698,-394,-590
1636,-440,-636
1574,-486,-686
1494,-535,-728
1402,-581,-772
1299,-618,-828
1193,-651,-886
1089,-678,-958
991,-690,-1039
904,-692,-1129
827,-683,-1224
766,-675,-1313
715,-668,-1392
671,-673,-1461
628,-679,-1523
584,-681,-1579
533,-684,-1625
479,-682,-1672
420,-682,-1718
372,-681,-1762
328,-676,-1805
298,-672,-1843
284,-672,-1884
281,-669,-1925
269,-667,-1962
257,-666,-1993
233,-659,-2024
202,-648,-2051
162,-637,-2076
108,-616,-2095
57,-592,-2117
13,-552,-2139
-16,-517,-2169
-34,-488,-2198
-37,-474,-2226
-27,-476,-2255
-6,-496,-2288
21,-524,-2322
56,-552,-2350
83,-581,-2375
97,-603,-2398
102,-608,-2419
101,-597,-2440
87,-569,-2454
64,-535,-2464
31,-501,-2466
-7,-471,-2471
-54,-450,-2467
-113,-442,-2458
-177,-446,-2445
-245,-447,-2440
-305,-439,-2437
-364,-438,-2440
-423,-454,-2452
-474,-491,-2469
-542,-563,-2485
-589,-712,-2508
-531,-952,-2571
-371,-1258,-2669
-199,-1558,-2766
-117,-1775,-2813
-117,-1894,-2811
-183,-1877,-2790
-324,-1733,-2759
-549,-1513,-2696
-819,-1274,-2609
-1109,-1017,-2497
-1425,-739,-2350
-1767,-441,-2163
-2123,-142,-1938
-2469,149,-1708
-2771,425,-1470
-3012,688,-1239
-3198,922,-1015
-3329,1116,-803
-3403,1261,-609
-3421,1362,-431
-3392,1425,-287
-3323,1446,-177
-3229,1420,-96
-3123,1361,-48
-3025,1282,-24
-2924,1194,-21
-2835,1104,-40
-2761,1009,-77
-2704,914,-131
-2676,838,-198
-2679,772,-272
-2708,720,-349
-2759,684,-438
-2821,666,-521
-2889,654,-602
-2954,649,-676
-3016,657,-747
-3065,665,-816
-3103,679,-878
-3126,690,-926
-3146,701,-970
-3157,710,-997
-3163,712,-1013
-3162,705,-1022
-3158,694,-1024
-3147,672,-1016
-3132,652,-1007
-3110,618,-994
-3089,584,-983
-3063,555,-977
-3033,525,-977
-2995,497,-982
-2956,470,-986
-2913,445,-993
-2871,420,-1004
-2827,400,-1011
-2787,377,-1018
-2750,356,-1023
-2727,339,-1028
-2714,318,-1028
-2715,299,-1035
-2727,273,-1038
-2742,245,-1045
-2761,218,-1051
-2775,192,-1065
-2781,167,-1079
-2784,143,-1090
-2786,133,-1101
-2782,127,-1111
-2772,135,-1116
-2762,138,-1124
-2742,140,-1124
-2719,138,-1129
-2694,126,-1121
-2668,117,-1113
-2646,100,-1099
-2622,79,-1078
-2590,49,-1056
-2542,12,-1031
-2479,-28,-1015
-2389,-64,-1000
-2280,-89,-990
-2176,-99,-963
-2081,-100,-928
-1995,-82,-884
-1926,-57,-828
-1876,-29,-762
-1836,-5,-694
-1808,6,-621
-1790,8,-544
-1778,-2,-469
-1769,-22,-395
-1764,-53,-319
-1760,-89,-247
-1757,-137,-181
-1746,-191,-114
-1732,-247,-59
-1708,-295,-12
-1672,-342,29
-1626,-371,60
-1577,-379,80
-1527,-365,88
-1469,-328,104
-1416,-278,108
-1367,-215,114
-1322,-146,123
-1275,-67,132
-1236,19,145
-1197,107,161
-1159,200,175
-1132,292,193
-1116,384,212
-1113,473,230
-1124,560,254
-1141,640,273
-1167,707,296
-1186,767,301
-1197,821,298
-1193,867,289
-1170,900,272
-1124,917,246
-1065,931,221
-995,944,193
-918,953,162
-833,960,136
-750,958,107
-674,945,84
-607,926,67
-562,904,53
-531,869,49
-525,834,56
-539,798,66
-567,763,81
-601,727,99
-638,692,114
-659,657,128
-666,619,134
-654,586,135
-628,557,124
-585,532,107
-533,510,79
-468,484,45
-395,454,7
-327,417,-30
-261,384,-68
-198,344,-100
-142,296,-128
-97,246,-149
-73,196,-158
-52,145,-158
-47,96,-149
-49,38,-140
-55,-25,-124
-69,-87,-106
-84,-148,-84
-102,-212,-65
-123,-278,-37
-153,-350,-5
-189,-424,22
-237,-517,43
-294,-620,62
-364,-743,73
-432,-887,85
-495,-1046,88
-547,-1205,88
-587,-1355,81
-622,-1492,74
-648,-1613,72
-688,-1706,78
-738,-1765,84
-811,-1783,88
-905,-1763,90
-1021,-1716,87
-1148,-1653,79
-1282,-1580,57
-1420,-1506,28
-1560,-1434,-9
-1699,-1370,-50
-1828,-1314,-99
-1950,-1270,-155
-2046,-1246,-210
-2121,-1232,-274
-2176,-1226,-338
-2222,-1220,-396
-2258,-1214,-451
-2289,-1206,-510
-2314,-1181,-565
-2343,-1145,-622
-2373,-1092,-682
-2415,-1017,-754
-2466,-939,-825
-2530,-848,-898
-2597,-759,-968
-2663,-669,-1031
-2732,-587,-1091
-2799,-508,-1149
-2856,-442,-1201
-2899,-389,-1246
-2937,-348,-1287
-2964,-315,-1328
-2984,-293,-1370
-3000,-267,-1405
-3021,-244,-1444
-3048,-218,-1480
-3072,-195,-1508
-3097,-170,-1534
-3114,-142,-1557
-3130,-123,-1576
-3130,-104,-1588
-3118,-80,-1601
-3100,-64,-1608
-3076,-62,-1605
-3047,-61,-1607
-3011,-78,-1604
-2963,-108,-1604
-2908,-141,-1608
-2837,-187,-1614
-2758,-241,-1618
-2683,-291,-1622
-2608,-324,-1634
-2538,-375,-1637
-2469,-400,-1641
-2414,-409,-1641
-2376,-439,-1640
-2345,-452,-1634
-2324,-445,-1635
-2314,-446,-1631
-2308,-441,-1628
-2305,-451,-1627
-2313,-451,-1629
-2310,-455,-1630
-2305,-460,-1635
-2298,-469,-1645
-2299,-482,-1652
-2298,-493,-1655
-2308,-504,-1651
-2321,-509,-1636
-2337,-519,-1615
-2354,-523,-1584
-2362,-518,-1540
-2361,-501,-1487
-2356,-487,-1429
-2344,-464,-1361
-2331,-438,-1288
-2320,-407,-1217
-2306,-374,-1147
-2291,-348,-1076
-2274,-326,-1007
-2247,-301,-946
-2214,-283,-885
-2172,-264,-822
-2131,-247,-772
-2085,-236,-720
-2032,-222,-676
-1978,-213,-632
-1922,-203,-594
-1867,-201,-550
-1815,-197,-507
-1775,-190,-462
-1744,-192,-406
-1720,-190,-363
-1701,-186,-323
-1679,-191,-284
-1657,-193,-245
-1622,-196,-209
-1579,-203,-177
-1520,-212,-144
-1449,-219,-115
-1376,-230,-88
-1301,-237,-64
-1234,-241,-40
-1173,-243,-15
-1120,-236,18
-1077,-216,53
-1043,-199,94
-1017,-169,136
-989,-127,181
-961,-90,225
-919,-59,270
-858,-24,309
-784,13,350
-696,55,387
-609,86,427
-524,116,466
-431,141,507
-337,176,542
-246,210,577
-155,238,605
-56,255,632
53,264,657
167,267,679
290,257,699
406,244,716
510,229,734
580,221,759
617,206,793
619,190,830
588,185,871
539,178,916
478,177,968
422,180,1011
369,186,1053
329,192,1086
310,204,1116
307,221,1138
325,232,1156
360,249,1166
406,272,1167
457,292,1169
509,311,1167
565,322,1164
628,326,1157
689,325,1150
743,327,1152
790,328,1149
824,328,1158
842,329,1169
858,325,1190
869,321,1203
882,318,1225
896,320,1246
908,317,1271
922,325,1296
938,331,1324
964,336,1358
990,341,1391
1026,351,1423
1069,358,1462
1122,368,1498
1177,386,1535
1237,404,1576
1287,430,1614
1342,459,1654
1391,491,1691
1436,526,1722
1481,558,1757
1525,587,1794
1576,620,1828
1625,646,1868
1671,665,1910
1720,684,1956
1765,708,2007
1819,737,2073
1883,773,2147
1961,837,2238
2062,914,2354
2171,1003,2494
2284,1077,2650
2402,1183,2806
2510,1263,2957
2615,1325,3097
2716,1374,3215
2805,1406,3314
2880,1428,3396
2937,1404,3452
2987,1362,3494
3037,1339,3504
3090,1322,3493
3139,1308,3465
3197,1309,3426
3246,1301,3374
3293,1278,3310
3333,1261,3240
3356,1245,3156
3366,1219,3072
3360,1198,2984
3338,1173,2889
3301,1150,2799
3246,1123,2707
3185,1102,2621
3124,1113,2536
3060,1131,2449
2994,1144,2364
2927,1198,2272
2858,1267,2170
2790,1355,2061
2726,1438,1938
2668,1531,1807
2623,1604,1669
2589,1714,1529
2569,1798,1391
2565,1886,1259
2579,1968,1135
2607,2042,1024
2643,2125,936
2669,2179,862
2681,2240,796
2662,2267,742
2612,2237,710
2529,2154,714
2425,2009,744
2351,1820,769
2335,1648,759
2370,1525,727
2469,1476,668
2634,1512,565
2851,1653,410
3126,1908,176
3450,2280,-128
3840,2748,-512
4268,3277,-944
4636,3843,-1372
4863,4402,-1743
4940,4925,-2042
4891,5365,-2250
4731,5690,-2357
4479,5888,-2379
4141,5964,-2326
3754,5945,-2224
3358,5872,-2124
2982,5744,-2021
2625,5579,-1928
2298,5383,-1833
1991,5155,-1721
1725,4914,-1597
1501,4670,-1462
1302,4436,-1324
1118,4204,-1187
949,3985,-1057
800,3788,-946
683,3619,-857
598,3481,-798
542,3369,-770
489,3285,-763
427,3223,-756
363,3130,-741
294,3055,-716
229,2991,-678
166,2919,-633
106,2864,-576
33,2815,-525
-41,2768,-477
-113,2739,-442
-161,2722,-427
-203,2710,-444
-237,2717,-484
-272,2743,-540
-317,2802,-604
-366,2836,-658
-425,2830,-698
-459,2786,-709
-508,2748,-724
-556,2715,-735
-594,2826,-757
-631,2597,-753
-668,2523,-759
-705,2429,-777
-737,2346,-796
-760,2273,-827
-772,2218,-851
-795,2186,-874
-824,2166,-884
-860,2152,-878
-888,2133,-852
-906,2117,-820
-924,2104,-784
-935,2093,-750
-938,2079,-720
-927,2068,-699
-915,2051,-689
-910,2038,-683
-904,2011,-683
-891,1970,-688
-881,1923,-696
-880,1876,-701
-896,1834,-700
-913,1803,-703
-934,1776,-701
-963,1755,-698
-992,1728,-683
-1020,1694,-658
-1042,1650,-635
-1055,1606,-610
-1064,1566,-591
-1064,1528,-579
-1054,1486,-571
-1046,1444,-574
-1038,1406,-582
-1025,1367,-600
-997,1329,-620
-961,1285,-644
-929,1235,-659
-905,1186,-667
-888,1141,-666
-883,1087,-664
-882,1035,-659
-887,983,-655
-892,937,-653
-902,898,-643
-910,852,-643
-906,811,-644
-898,776,-650
-882,734,-663
-855,701,-679
-828,673,-689
-800,648,-689
-786,636,-686
-775,622,-671
-776,612,-654
-778,603,-627
-784,591,-602
-790,589,-579
-792,579,-557
-786,564,-530
-780,551,-511
-769,532,-493
-746,513,-480
-716,488,-477
-674,459,-477
-626,421,-487
-577,390,-497
-530,342,-502
-483,268,-488
-418,128,-423
-335,-134,-298
-262,-470,-188
-228,-728,-179
-219,-848,-221
-214,-879,-268
-210,-873,-308
-208,-841,-350
-215,-791,-390
-223,-730,-438
-232,-659,-483
-239,-572,-538
-244,-477,-587
-246,-370,-634
-243,-261,-675
-229,-161,-700
-203,-77,-710
-167,-32,-678
-115,-24,-610
-67,-65,-518
-25,-135,-429
5,-204,-366
36,-242,-325
62,-255,-278
99,-260,-225
137,-262,-165
185,-259,-99
231,-256,-33
282,-253,25
333,-247,75
384,-234,115
432,-219,147
479,-206,171
514,-197,189
536,-196,215
549,-197,226
548,-195,237
537,-195,246
520,-196,240
492,-191,231
456,-188,218
416,-176,189
375,-169,152
329,-157,104
286,-140,52
237,-118,-10
193,-94,-67
152,-72,-131
112,-53,-192
75,-38,-251
42,-20,-306
12,-8,-357
-15,3,-403
-34,7,-442
-51,15,-472
-66,20,-495
-70,29,-512
-80,42,-527
-80,52,-528
-80,65,-523
-81,84,-515
-83,103,-504
-90,120,-485
-95,139,-460
-110,156,-430
-129,176,-399
-155,198,-367
-182,218,-332
-212,238,-296
-239,257,-260
-263,270,-231
-284,281,-202
-299,294,-174
-322,298,-147
-344,309,-126
-367,313,-100
-392,313,-78
-418,318,-58
-445,320,-37
-476,316,-18
-503,315,-3
-531,316,11
-548,316,25
-567,313,33
-576,313,44
-580,311,52
-586,309,63
-588,301,72
-596,294,80
-596,285,97
-605,272,111
-604,261,125
-604,252,140
-598,233,154
-587,216,166
-575,196,182
-562,172,200
-542,149,215
-517,125,227
-495,103,244
-473,81,251
-448,65,260
-419,46,269
-395,32,273
-371,16,279
-347,13,279
-324,3,284
-304,0,284
-283,1,282
-266,-1,282
-251,-1,282
-234,0,281
-217,4,275
-202,4,267
-180,7,265
-166,7,258
-154,5,257
-143,6,255
-136,2,252
-133,6,246
-131,10,241
-129,13,234
-132,19,232
-132,29,224
-130,42,220
-127,52,210
-124,62,205
-115,72,203
-109,82,200
-100,95,199
-89,100,205
-74,101,210
-57,100,216
-32,92,227
-8,78,241
24,58,254
55,34,270
83,11,288
111,-16,300
143,-35,311
173,-51,313
195,-64,320
212,-66,324
222,-63,319
227,-56,326
222,-50,328
207,-38,327
205,-28,322
211,-20,309
222,-15,297
238,-13,280
251,-13,262
267,-19,248
277,-25,236
281,-32,226
277,-42,212
265,-53,207
245,-63,201
219,-72,189
189,-75,177
152,-76,166
116,-76,147
82,-74,133
51,-68,114
22,-66,94
4,-60,78
-4,-55,62
-10,-48,44
-4,-49,30
3,-46,14
13,-42,4
20,-43,0
25,-43,-3
22,-53,2
11,-63,13
0,-70,23
-13,-84,32
-31,-96,46
-41,-111,50
-54,-122,59
-56,-134,62
-66,-145,63
-73,-154,61
-79,-163,63
-82,-169,60
-87,-176,55
-96,-181,47
-100,-186,39
-98,-193,29
-104,-199,18
-105,-205,11
-112,-210,5
-121,-209,0
-122,-209,-6
-123,-205,-13
-120,-197,-22
-116,-188,-33
-99,-181,-47
-80,-176,-68
-65,-168,-77
-45,-166,-86
-34,-166,-94
-24,-169,-98
-13,-174,-106
-8,-179,-109
0,-179,-114
10,-190,-116
14,-196,-116
20,-203,-121
26,-206,-131
30,-203,-145
23,-198,-158
15,-195,-170
-2,-185,-190
-21,-189,-208
-43,-205,-232
-63,-217,-260
-81,-237,-286
-100,-251,-306
-120,-265,-328
-144,-280,-349
-167,-292,-372
-203,-314,-391
-245,-329,-405
-296,-363,-428
-343,-399,-449
-396,-445,-467
-443,-503,-489
-476,-579,-520
-498,-670,-554
-510,-774,-574
-516,-881,-605
-522,-972,-643
-531,-1041,-677
-544,-1073,-709
-556,-1080,-748
-575,-1060,-783
-598,-1034,-816
-622,-994,-840
-645,-942,-861
-667,-880,-875
-681,-809,-886
-684,-733,-886
-679,-652,-875
-669,-569,-853
-654,-498,-823
-628,-421,-782
-595,-348,-733
-554,-276,-678
-506,-211,-621
-452,-137,-562
-397,-69,-510
-336,-3,-458
-278,70,-415
-213,133,-370
-152,203,-329
-91,269,-299
-41,324,-273
8,374,-244
50,425,-227
91,463,-211
135,507,-198
182,553,-188
228,613,-179
282,676,-167
337,749,-155
403,847,-148
473,982,-141
545,1156,-137
616,1368,-135
687,1600,-130
749,1824,-129
800,2011,-124
844,2141,-118
886,2211,-110
917,2227,-102
938,2176,-93
930,2079,-85
902,1957,-95
850,1821,-103
781,1645,-116
700,1435,-135
625,1199,-157
559,961,-190
528,775,-236
538,651,-299
572,569,-366
617,498,-430
658,461,-496
677,456,-552
672,465,-585
633,472,-602
561,466,-586
497,446,-565
472,428,-545
451,399,-514
444,366,-470
442,339,-422
462,315,-368
502,311,-320
538,304,-266
569,280,-220
590,248,-170
597,217,-130
587,204,-93
547,181,-67
492,162,-47
432,137,-32
385,109,-20
346,76,-11
325,52,-1
322,22,11
335,-7,23
365,-37,40
403,-65,58
445,-100,68
484,-131,80
516,-172,89
544,-206,105
552,-241,122
541,-274,149
524,-308,170
500,-335,193
471,-366,210
439,-388,227
408,-409,244
374,-423,260
330,-432,280
286,-434,295
236,-432,305
192,-433,302
153,-429,286
108,-432,258
67,-437,225
18,-442,187
-33,-444,144
-92,-444,104
-150,-441,54
-205,-434,7
-255,-430,-41
-295,-424,-90
-329,-417,-137
-363,-417,-179
-386,-417,-211
-408,-414,-245
-425,-407,-265
-440,-392,-282
-448,-379,-292
-448,-366,-294
-438,-357,-290
-424,-349,-281
-410,-339,-268
-385,-333,-245
-361,-331,-221
-338,-325,-194
-313,-325,-159
-289,-322,-121
-268,-322,-83
-246,-324,-40
-224,-322,2
-211,-319,50
-195,-318,96
-182,-315,138
-172,-309,186
-162,-299,227
-150,-294,265
-143,-284,306
-135,-272,346
-124,-255,382
-114,-233,416
-102,-210,446
-89,-181,474
-72,-140,501
-57,-91,523
-43,-32,543
-34,32,556
-27,101,562
-27,159,568
-31,217,571
-40,264,572
-58,302,572
-82,328,573
-107,345,569
-141,362,566
-173,366,561
-203,361,551
-227,352,543
-250,328,528
-264,304,513
-269,273,493
-268,239,474
-264,202,455
-261,164,429
-252,124,406
-241,93,387
-241,57,372
-241,26,356
-236,-7,347
-223,-40,334
-210,-71,322
-186,-106,314
-160,-139,304
-133,-175,296
-104,-203,286
-65,-233,277
-34,-253,270
-2,-267,262
27,-270,256
50,-266,250
66,-254,249
75,-233,237
79,-209,232
75,-186,227
66,-155,224
51,-130,218
33,-101,212
13,-75,201
-8,-55,192
-26,-42,180
-45,-33,164
-60,-31,151
-72,-36,130
-79,-40,108
-83,-52,92
-89,-65,68
-82,-76,46
-78,-90,27
-71,-103,1
-62,-116,-19
-54,-127,-39
-36,-129,-59
-21,-135,-78
-5,-134,-93
2,-127,-102
3,-112,-107
-2,-91,-108
-6,-75,-108
-17,-51,-108
-19,-35,-110
-29,-23,-107
-29,-10,-106
-31,-3,-101
-24,3,-101
-18,10,-99
-14,14,-95
-2,17,-91
9,14,-92
25,16,-91
40,9,-92
53,6,-99
57,-1,-97
60,-10,-102
61,-17,-101
56,-26,-103
56,-30,-106
54,-34,-108
50,-33,-108
49,-29,-109
46,-29,-112
47,-26,-109
46,-23,-112
42,-20,-110
33,-15,-105
23,-9,-98
17,0,-95
9,5,-87
4,13,-85
1,18,-80
3,25,-75
5,26,-67
19,30,-66
27,31,-65
40,31,-59
49,30,-53
55,32,-46
53,36,-44
49,38,-41
44,39,-34
39,42,-29
36,44,-23
33,50,-21
29,53,-22
23,61,-16
17,67,-14
10,69,-9
0,73,-6
-3,78,-4
4,81,-11
16,88,-19
31,89,-29
40,89,-35
47,86,-41
54,81,-49
58,74,-49
61,65,-54
55,61,-52
43,51,-47
25,45,-41
8,36,-31
-9,24,-30
-18,9,-23
-26,-3,-18
-37,-15,-14
-43,-27,-8
-46,-38,-8
-48,-47,-3
-44,-51,0
-38,-56,-2
-30,-55,-2
-18,-53,-2
-11,-49,-3
-1,-39,-4
5,-35,-7
10,-24,-4
8,-19,-1
6,-13,0
6,-8,5
4,-6,8
10,-2,4
12,2,9
14,5,8
15,8,11
23,14,13
30,18,10
37,23,11
40,29,11
44,33,8
42,37,12
36,35,12
28,32,12
20,24,16
14,15,14
9,13,8
5,3,5
5,0,-2
4,-6,-3
4,-8,-8
11,-10,-12
14,-8,-13
21,-5,-19
25,-1,-24
30,9,-26
30,19,-22
26,32,-27
24,40,-21
18,48,-18
13,53,-13
5,58,-8
-1,58,-5
-4,57,0
-4,56,5
-1,51,8
3,44,11
12,40,12
18,31,17
25,27,16
32,20,19
38,15,14
43,13,13
44,12,13
42,13,14
34,13,19
25,15,20
15,19,23
7,20,23
-4,23,26
-9,21,24
-16,20,25
-30,19,27
-41,16,28
-48,7,27
-48,3,22
-47,-1,21
-47,-4,20
-39,-4,14
-27,-8,6
-13,-14,0
-2,-21,-8
8,-26,-10
18,-30,-13
23,-33,-11
26,-39,-9
27,-49,-4
18,-58,-2
9,-67,0
-3,-76,2
-18,-85,1
-26,-94,-9
-25,-108,-24
-22,-117,-35
-20,-120,-47
-16,-122,-53
-16,-121,-62
-15,-117,-73
-15,-114,-81
-14,-105,-86
-12,-100,-96
-9,-95,-99
-8,-91,-109
-6,-88,-111
-9,-81,-112
-14,-77,-109
-20,-70,-105
-24,-67,-95
-33,-62,-89
-37,-60,-75
-42,-50,-60
-47,-40,-43
-40,-26,-30
-32,-20,-14
-22,-10,-4
-12,1,7
2,0,19
18,5,30
29,7,36
41,6,41
53,0,41
60,-1,49
64,-13,47
72,-17,46
69,-16,46
70,-26,44
66,-25,41
62,-23,37
57,-25,38
47,-19,35
38,-20,29
26,-16,29
17,-8,30
9,-8,29
4,-4,29
-4,4,28
-7,3,28
-9,6,28
-14,12,32
-17,15,32
-17,17,35
-19,20,32
-19,28,34
-16,24,35
-16,26,37
-15,29,40
-17,39,38
-19,34,42
-19,29,44
-24,26,42
-24,22,44
-25,27,44
-28,29,42
-31,15,38
-36,4,39
-35,-8,34
-35,-12,31
-36,-19,27
-41,-24,23
-47,-25,18
-46,-27,15
-55,-35,16
-69,-43,14
-84,-47,18
-87,-56,12
-80,-67,4
-68,-72,0
-54,-78,-5
-44,-75,-17
-32,-74,-25
-20,-77,-30
-12,-80,-40
-10,-77,-47
-10,-69,-58
-2,-68,-65
-4,-71,-71
-5,-78,-74
-13,-74,-73
-23,-72,-73
-38,-76,-65
-56,-80,-55
-76,-75,-42
-92,-73,-35
-97,-68,-28
-97,-60,-18
-88,-58,-6
-75,-48,-2
-60,-34,3
-41,-23,8
-25,-14,10
-7,-11,13
4,-6,15
11,-5,19
18,-5,19
23,-15,19
29,-20,15
33,-22,19
24,-29,22
15,-38,27
1,-47,33
-5,-49,26
1,-50,23
11,-55,21
24,-62,19
40,-57,17
51,-60,14
65,-54,12
81,-52,9
96,-47,5
107,-44,0
116,-41,-3
123,-40,-12
120,-32,-18
108,-23,-23
94,-27,-24
69,-22,-31
45,-24,-31
14,-28,-30
-17,-34,-28
-39,-37,-28
-59,-39,-29
-71,-51,-27
-74,-58,-29
-74,-64,-25
-65,-71,-29
-55,-84,-29
-45,-88,-32
-35,-83,-35
-26,-85,-38
-17,-73,-44
-14,-68,-48
-11,-55,-47
-11,-49,-42
-13,-37,-41
-17,-28,-36
-23,-19,-33
-26,-13,-27
-27,-4,-22
-28,-5,-20
-28,-3,-13
-18,-4,-5
-16,-9,-3
-7,-10,-1
0,-16,2
8,-19,7
15,-19,7
25,-26,10
33,-26,10
38,-26,11
38,-26,16
40,-21,18
42,-16,17
50,-13,16
57,-8,17
67,-7,15
79,-2,15
86,-1,11
101,-1,8
110,-4,5
118,-4,3
120,-4,0
120,-7,1
122,-5,1
119,0,0
116,6,-4
112,10,-4
104,17,-1
97,17,1
89,22,6
78,17,9
65,16,13
57,9,20
45,5,21
40,2,27
31,-6,29
26,-8,29
21,-10,32
19,-14,32
16,-11,30
21,-11,30
24,-13,25
24,-6,18
26,-5,19
27,-5,18
25,0,18
20,0,20
16,0,22
12,1,24
12,5,24
10,7,25
8,6,29
9,4,30
13,2,31
18,1,33
25,1,32
32,3,31
40,0,33
52,1,29
57,7,28
69,3,25
76,6,22
80,5,16
89,6,15
94,7,8
100,8,0
108,7,-7
113,10,-18
114,9,-24
115,12,-29
113,13,-34
112,12,-34
104,10,-39
99,15,-43
88,11,-45
79,9,-47
70,13,-49
64,10,-46
56,14,-44
49,15,-40
43,14,-37
40,13,-37
36,11,-31
41,15,-30
46,10,-30
48,10,-31
50,9,-29
52,9,-25
48,7,-21
39,6,-20
31,5,-16
20,2,-11
11,-2,-4
2,1,3
-4,2,9
-13,0,19
-18,1,30
-19,1,38
-26,5,44
-27,9,56
-29,19,67
-20,30,68
-2,38,69
20,43,69
42,49,63
61,50,60
76,51,62
77,49,64
75,44,66
66,38,74
49,33,74
30,26,77
14,22,80
-4,16,80
-17,12,83
-29,7,84
-31,6,85
-37,3,84
-40,8,80
-41,5,78
-36,2,73
-35,4,66
-27,4,56
-20,6,50
-15,7,36
-7,8,29
4,6,18
9,4,9
16,3,3
22,-1,-8
28,-2,-18
33,-7,-20
32,-6,-26
31,-10,-31
27,-8,-37
27,-5,-43
28,-4,-46
31,-6,-51
31,-2,-54
24,1,-53
16,5,-57
6,6,-55
0,7,-55
-7,11,-50
-17,11,-46
-26,10,-42
-29,6,-39
-38,7,-33
-35,6,-28
-38,5,-26
-36,3,-22
-34,2,-21
-32,1,-18
-25,-4,-21
-20,-1,-21
-10,-3,-27
-7,-4,-28
-5,-8,-30
-6,-10,-30
-4,-9,-32
-6,-12,-36
-10,-15,-37
-11,-16,-37
-10,-18,-38
-11,-17,-38
-13,-18,-37
-12,-16,-37
-12,-12,-37
-7,-11,-37
-9,-6,-35
-9,-2,-29
-12,0,-20
-21,5,-16
-26,11,-3
-31,15,4
-36,18,12
-41,20,24
-44,21,33
-35,18,44
-33,16,53
-28,15,64
-14,7,71
0,6,75
12,-1,76
25,-1,78
38,-1,77
47,-3,80
49,-2,78
47,-3,74
49,2,74
46,1,70
45,4,64
48,4,58
45,6,55
41,7,50
29,8,49
15,8,50
-3,8,51
-22,7,51
-36,9,50
-40,12,45
-36,9,44
-26,10,29
-14,12,22
-6,10,12
6,14,9
15,13,1
18,16,-8
24,20,-10
20,17,-17
16,24,-22
13,23,-24
8,27,-29
0,28,-29
-4,33,-31
-9,34,-32
-13,37,-37
-18,38,-37
-22,35,-40
-18,29,-42
-18,22,-44
-18,12,-41
-13,1,-43
-11,-9,-43
-12,-24,-40
-13,-34,-32
-12,-44,-22
-9,-52,-17
-6,-50,-9
-2,-50,3
2,-50,14
8,-52,28
24,-57,46
36,-67,61
47,-77,77
57,-81,106
62,-71,133
72,-50,167
79,-18,212
92,28,252
106,80,294
123,128,326
140,164,353
156,182,373
157,179,385
153,160,396
135,131,395
111,97,389
81,78,371
47,70,346
14,73,314
-12,74,271
-34,78,227
-48,84,183
-55,93,135
-59,98,91
-55,97,46
-45,91,12
-31,78,-21
-17,70,-52
-5,55,-70
-1,40,-89
0,23,-100
-2,11,-106
-7,2,-109
-12,1,-117
-16,0,-117
-18,2,-117
-22,10,-114
-26,23,-113
-27,39,-112
-23,54,-106
-13,70,-105
-7,77,-100
4,73,-94
17,65,-90
36,50,-86
54,35,-83
73,22,-84
89,12,-82
102,0,-83
110,-8,-81
116,-14,-79
119,-14,-80
113,-21,-78
114,-27,-80
113,-32,-87
109,-34,-88
102,-35,-91
102,-44,-88
96,-53,-82
91,-61,-79
80,-72,-61
67,-83,-47
59,-99,-37
50,-117,-22
51,-136,-11
54,-154,3
58,-165,9
71,-179,18
82,-178,24
94,-181,31
107,-177,34
119,-171,39
133,-164,43
141,-154,48
151,-143,52
157,-132,56
164,-120,62
177,-111,65
183,-97,67
195,-83,69
206,-70,72
210,-53,72
214,-41,70
207,-27,66
192,-18,64
166,-15,62
131,-12,63
94,-14,62
49,-15,63
0,-23,59
-45,-39,55
-78,-58,52
-99,-75,40
-103,-91,23
-92,-102,9
-69,-109,-11
-42,-105,-27
-15,-97,-45
9,-89,-62
33,-81,-72
47,-68,-77
45,-60,-84
34,-49,-84
6,-43,-77
-23,-41,-64
-56,-36,-54
-79,-36,-43
-95,-38,-34
-94,-39,-31
-87,-42,-25
-72,-50,-29
-54,-59,-35
-33,-68,-48
-22,-82,-63
-12,-94,-74
-11,-105,-85
-23,-110,-87
-39,-112,-90
-60,-111,-92
-82,-100,-87
-100,-93,-82
-114,-82,-76
-123,-68,-69
-123,-54,-60
-119,-39,-52
-110,-28,-41
-95,-17,-33
-75,-8,-11
-53,-3,0
-32,-2,21
-12,-5,42
6,-15,61
24,-29,79
45,-44,97
68,-56,107
86,-63,118
103,-70,116
125,-66,113
141,-66,104
155,-60,94
170,-53,82
182,-44,67
187,-35,51
182,-28,35
167,-24,25
141,-28,20
113,-35,16
87,-36,8
59,-39,4
38,-38,0
28,-37,-10
30,-35,-22
34,-34,-28
38,-32,-36
42,-24,-38
47,-14,-39
53,-6,-37
57,3,-35
62,11,-34
65,19,-33
71,22,-33
72,25,-30
73,25,-26
75,25,-19
77,24,-17
76,15,-10
69,10,-4
66,6,2
66,-2,9
66,-5,8
65,-8,17
69,-9,20
70,-5,24
77,-2,21
88,8,15
107,16,8
127,24,-2
143,34,-16
159,48,-23
173,57,-35
178,63,-44
177,67,-46
172,65,-39
160,64,-35
138,63,-32
123,63,-29
104,60,-26
86,58,-19
75,55,-11
70,53,0
68,50,7
63,48,16
58,38,29
43,37,43
27,37,61
-1,42,77
-41,51,91
-86,60,109
-136,68,129
-179,70,147
-212,71,155
-225,66,159
-225,57,159
-212,49,162
-191,42,166
-163,41,167
-124,41,167
-82,43,163
-27,41,161
25,48,155
80,48,148
134,48,138
179,47,125
220,47,110
251,49,99
271,49,84
282,48,68
282,43,52
272,38,35
260,32,13
235,21,-3
212,15,-23
185,9,-42
156,7,-60
133,2,-80
108,2,-98
91,2,-110
75,-2,-117
63,-2,-124
55,-6,-122
54,-9,-126
51,-15,-126
46,-27,-120
36,-32,-118
24,-44,-112
13,-54,-106
6,-62,-101
-8,-66,-95
-18,-69,-88
-26,-76,-83
-31,-72,-78
-30,-71,-75
-19,-71,-70
-6,-66,-60
11,-60,-54
33,-55,-52
51,-47,-49
73,-39,-47
96,-34,-44
116,-24,-43
137,-19,-39
153,-7,-41
164,4,-39
168,11,-36
168,22,-39
160,26,-36
148,36,-35
135,43,-36
116,46,-37
96,48,-35
77,46,-34
54,45,-33
38,37,-30
20,31,-29
7,22,-31
4,14,-33
-4,8,-36
-6,1,-38
-6,-1,-47
-2,-2,-51
0,-5,-57
8,-12,-58
12,-13,-61
15,-7,-63
16,-6,-62
13,-1,-59
10,1,-56
7,9,-50
4,14,-45
1,13,-42
3,17,-34
-1,23,-34
7,22,-27
11,25,-24
18,26,-21
27,23,-22
38,24,-22
45,21,-22
51,20,-23
58,14,-21
60,5,-23
62,2,-27
62,-2,-29
60,-8,-30
57,-15,-30
52,-20,-35
47,-25,-40
40,-30,-42
37,-36,-46
32,-40,-49
31,-41,-50
29,-45,-51
28,-45,-54
34,-51,-56
34,-46,-58
43,-49,-56
46,-48,-56
50,-48,-57
58,-46,-55
62,-47,-51
63,-46,-58
69,-46,-58
65,-42,-59
67,-37,-60
66,-36,-64
69,-34,-68
63,-28,-71
53,-25,-75
45,-19,-78
42,-17,-78
34,-12,-84
30,-7,-86
25,-1,-85
14,2,-81
7,1,-80
-4,10,-76
-12,13,-71
-17,19,-67
-26,28,-62
-31,35,-57
-30,44,-56
-24,47,-52
-12,52,-52
-3,57,-52
15,54,-56
26,55,-60
40,47,-64
52,44,-68
57,36,-69
57,29,-70
57,20,-73
54,16,-70
41,10,-68
30,6,-67
12,8,-67
-5,12,-66
-22,15,-68
-40,17,-70
-55,24,-72
-71,24,-73
-88,26,-69
-100,24,-63
-115,22,-61
-127,19,-51
-137,11,-46
-146,6,-34
-157,0,-23
-164,-3,-13
-167,-8,-7
-172,-14,5
-170,-14,15
-167,-21,26
-173,-18,36
-171,-22,45
-168,-19,51
-159,-19,60
-152,-19,63
-140,-16,65
-132,-16,70
-122,-17,71
-111,-18,68
-99,-23,70
-89,-20,72
-83,-24,70
-74,-23,72
-60,-25,64
-48,-27,64
-38,-31,56
-33,-30,52
-25,-34,50
-22,-36,49
-30,-35,49
-34,-36,48
-43,-39,50
-53,-39,50
-64,-44,53
-69,-46,55
-73,-47,55
-77,-48,57
-84,-49,57
-91,-43,58
-98,-38,63
-105,-34,68
-111,-29,68
-119,-28,69
-125,-24,68
-126,-21,66
-124,-24,63
-123,-24,60
-112,-26,55
-99,-31,52
-88,-35,44
-71,-41,39
-57,-47,31
-36,-52,22
-19,-56,13
-5,-54,1
5,-56,-4
15,-51,-11
16,-48,-17
19,-42,-19
16,-38,-19
15,-33,-26
9,-24,-25
6,-21,-25
1,-10,-29
-2,-1,-25
-7,13,-16
-7,21,-5
-4,35,2
-3,45,7
2,56,3
7,64,-3
13,65,-11
18,70,-19
28,71,-28
34,69,-44
39,65,-58
44,62,-71
48,62,-84
56,61,-98
61,57,-105
66,50,-111
67,35,-115
63,33,-117
59,37,-114
48,32,-107
36,33,-104
21,30,-97
0,35,-87
-15,43,-73
-36,43,-58
-57,51,-46
-74,58,-33
-86,54,-23
-89,56,-17
-95,58,-10
-95,53,-2
-90,55,3
-85,57,8
-73,52,10
-67,57,12
-55,54,12
-41,53,9
-26,54,7
-14,51,-4
1,34,-17
15,20,-26
28,12,-36
32,9,-44
34,6,-49
31,4,-48
23,6,-45
13,12,-43
1,20,-36
-15,21,-31
-31,27,-25
-38,24,-20
-50,23,-13
-57,11,-6
-63,5,2
-70,1,12
-73,-1,21
-74,2,28
-82,0,36
-80,3,49
-71,5,47
-50,3,45
-26,-1,41
8,-3,40
43,-6,29
79,-5,24
111,-4,17
133,-14,11
154,-16,4
162,-13,-5
165,-23,-15
159,-20,-24
149,-19,-33
131,-18,-45
107,-13,-59
85,-28,-58
54,-20,-58
27,-40,-48
-1,-36,-41
-22,-46,-35
-46,-43,-27
-57,-39,-23
-66,-42,-16
-71,-30,-15
-70,-42,-9
-69,-42,-4
-62,-44,0
-55,-45,8
-40,-44,16
-32,-40,19
-19,-38,25
-5,-31,31
5,-26,36
12,-20,46
19,-14,53
21,-6,62
32,2,66
36,8,75
35,20,84
37,19,90
33,20,99
32,23,104
25,20,108
23,21,111
17,17,111
10,15,105
0,9,103
-3,4,97
-6,-4,88
-9,-11,86
-14,-10,80
-17,-14,72
-18,-14,67
-17,-19,60
-14,-17,56
-12,-17,49
-5,-15,45
-1,-12,42
4,-9,31
12,-3,30
17,2,19
23,8,15
24,13,11
24,19,8
28,25,5
28,27,1
28,31,-1
24,34,-3
26,30,-9
22,31,-11
20,27,-13
17,21,-18
13,14,-16
6,11,-20
-2,4,-20
-10,3,-19
-16,-2,-18
-26,-5,-14
-34,-10,-11
-43,-9,-11
-41,-4,-8
-43,-5,-7
-41,-3,-6
-32,4,-3
-21,12,-2
-2,19,-2
18,23,-7
39,27,-9
56,35,-7
76,37,-7
93,42,-1
106,42,3
117,39,7
130,40,10
137,34,15
145,27,15
149,21,20
152,19,18
154,12,20
158,5,16
157,0,16
154,-1,10
152,-6,6
145,-5,-1
146,-6,-9
146,-2,-23
143,3,-36
146,11,-51
147,22,-64
149,35,-72
145,46,-85
144,60,-93
142,71,-100
138,84,-104
135,92,-103
132,101,-105
134,111,-104
140,113,-105
145,115,-100
148,113,-97
149,110,-94
148,101,-83
146,88,-76
141,82,-69
134,67,-55
119,55,-41
106,43,-31
88,35,-15
70,24,-3
53,17,12
35,8,24
25,6,35
14,2,47
9,1,49
9,3,54
10,4,56
17,7,53
21,9,52
29,18,47
33,23,43
39,29,40
44,36,38
44,44,39
47,49,37
52,60,37
54,64,39
55,73,35
57,78,32
62,80,27
56,81,26
54,73,28
49,69,23
42,66,25
36,63,29
25,65,34
18,65,34
18,67,39
14,67,47
18,69,53
26,66,59
33,58,64
46,53,63
61,52,57
77,48,48
87,47,36
98,43,25
104,37,14
105,30,1
103,27,-10
92,24,-16
78,23,-23
64,18,-27
40,18,-26
25,12,-27
8,9,-28
-6,3,-32
-17,-2,-35
-30,-9,-33
-33,-17,-34
-38,-23,-32
-44,-30,-32
-40,-40,-26
-35,-46,-29
-28,-53,-27
-23,-61,-27
-17,-69,-24
-11,-73,-25
-5,-78,-25
0,-84,-26
9,-89,-27
10,-95,-31
14,-97,-32
17,-103,-39
19,-110,-43
15,-114,-45
13,-118,-52
5,-119,-53
-4,-117,-56
-14,-114,-61
-30,-108,-62
-42,-100,-61
-58,-87,-61
-69,-79,-59
-83,-69,-56
-96,-56,-51
-109,-42,-47
-120,-29,-38
-126,-13,-29
-135,0,-15
-140,13,-6
-142,21,7
-143,32,18
-148,39,22
-141,42,29
-132,42,39
-124,45,43
-111,48,47
-97,45,52
-83,45,51
-71,46,51
-57,44,55
-51,44,55
-44,45,57
-33,43,60
-28,42,62
-30,39,67
-31,38,74
-31,39,75
-20,41,76
-9,42,71
10,47,65
28,47,63
48,45,58
65,39,60
80,31,60
91,19,63
98,9,61
102,1,62
97,-4,61
92,-14,61
83,-18,62
72,-20,61
59,-27,57
47,-28,53
34,-31,55
21,-31,53
1,-25,48
-6,-21,45
-16,-13,37
-21,-4,35
-26,5,28
-33,12,27
-36,18,23
-35,22,23
-33,26,23
-34,26,24
-36,25,28
-35,21,33
-37,19,38
-39,15,41
-34,8,43
-35,5,48
-32,1,48
-31,0,53
-28,-5,52
-22,-5,52
-14,-6,52
-8,-5,49
-4,3,46
6,3,44
13,7,35
18,8,34
27,12,31
32,14,28
38,13,24
38,18,19
44,18,15
41,21,14
40,19,11
37,18,11
30,21,13
25,23,10
19,23,14
14,20,15
12,24,17
11,23,15
11,26,16
13,25,17
15,24,12
16,22,14
18,22,16
16,23,14
16,24,12
16,24,9
18,25,11
19,24,11
19,24,7
19,20,6
17,17,6
15,16,6
14,14,8
9,13,9
11,14,10
10,15,8
7,14,5
3,17,6
0,18,5
-3,19,8
-3,17,9
-8,19,11
-8,18,12
-9,20,10
-9,17,9
-9,17,12
-8,16,13
-3,14,16
-3,13,15
0,12,15
0,10,17
2,8,17
3,6,17
8,4,16
9,1,15
11,-1,17
13,-5,15
13,-12,16
14,-19,13
12,-20,13
14,-22,5
13,-23,2
8,-25,4
0,-23,0
-5,-26,2
-15,-23,1
-26,-24,9
-35,-24,15
-32,-23,16
-27,-17,10
-17,-21,8
-5,-23,6
4,-28,3
17,-38,4
24,-45,5
31,-56,2
35,-64,0
37,-73,-4
38,-85,-6
36,-93,-11
33,-102,-17
26,-102,-22
14,-101,-27
6,-96,-35
-4,-90,-36
-20,-84,-41
-32,-79,-47
-46,-68,-47
-60,-58,-44
-71,-47,-45
-84,-37,-43
-94,-29,-42
-106,-22,-34
-111,-16,-28
-108,-8,-25
-111,-11,-17
-111,-9,-12
-107,-10,-5
-98,-16,4
-91,-19,11
-81,-28,19
-71,-33,22
-62,-37,35
-54,-44,40
-47,-49,47
-32,-55,48
-21,-59,55
-11,-59,53
1,-56,57
9,-56,55
22,-47,53
33,-47,52
44,-43,47
54,-35,38
65,-34,36
73,-28,30
83,-26,26
89,-19,24
96,-22,21
99,-15,14
97,-13,13
98,-11,9
98,-12,10
92,-7,6
88,-6,4
81,-5,2
73,-2,-3
66,0,-1
51,4,-1
41,5,-4
32,7,-3
20,9,-3
14,15,-10
3,20,-12
0,24,-19
-5,25,-19
-11,31,-18
-13,31,-24
-15,33,-25
-17,34,-27
-19,32,-22
-19,33,-24
-21,30,-23
-24,27,-22
-23,29,-22
-23,28,-17
-26,26,-17
-27,27,-16
-26,29,-16
-23,27,-17
-23,28,-19
-22,23,-20
-21,25,-23
-20,23,-20
-17,21,-23
-13,16,-22
-8,18,-21
-1,22,-20
4,28,-18
9,33,-11
13,37,-5
20,42,-1
24,46,9
20,50,13
25,54,25
29,61,29
28,67,34
36,70,36
47,71,39
54,70,37
66,65,41
71,60,41
84,54,40
88,44,39
90,33,35
91,24,29
88,9,27
85,-3,26
78,-10,22
69,-19,17
60,-27,14
54,-32,11
42,-35,10
33,-39,7
24,-42,2
16,-45,1
5,-47,1
-5,-49,-2
-15,-49,-5
-21,-45,-7
-27,-45,-5
-34,-40,-7
-41,-36,-8
-44,-29,-8
-52,-30,-6
-52,-23,-5
-57,-20,-6
-59,-20,-1
-57,-19,-1
-59,-16,3
-57,-14,8
-61,-12,10
-57,-11,13
-54,-7,14
-48,-7,18
-41,-2,16
-35,-4,16
-28,-3,14
-17,-1,17
-12,0,13
-1,1,11
7,1,11
11,3,10
19,1,7
20,0,8
24,-1,8
29,-1,7
33,-3,5
35,-3,4
36,-4,3
33,-4,3
34,-5,2
32,-5,3
35,-8,2
27,-6,1
25,-9,2
27,-7,0
26,-8,0
24,-7,-4
19,-7,-3
19,-6,-1
16,-3,0
13,-6,-2
10,-5,-2
11,0,1
8,-1,-2
4,2,0
1,2,-4
1,3,-2
-3,2,-2
-1,1,-3
-3,3,-5
-4,3,-7
-8,3,-8
-11,0,-11
-11,-2,-10
-14,-5,-10
-15,-8,-11
-14,-11,-15
-17,-11,-15
-24,-9,-11
-32,-9,-11
-34,-15,-10
-45,-10,-9
-54,-8,-5
-60,-4,0
-63,4,0
-61,12,0
-48,22,0
-32,31,-3
-15,31,-3
3,35,-6
21,29,-3
36,21,0
53,13,3
61,7,6
67,-3,5
71,-13,8
72,-21,8
69,-28,7
64,-38,3
58,-40,4
46,-41,0
40,-43,-1
29,-44,-5
19,-39,-8
8,-38,-11
-2,-27,-10
-11,-25,-10
-22,-18,-10
-31,-13,-11
-34,-4,-10
-39,1,-8
-41,10,-5
-42,13,-4
-41,18,-1
-42,21,4
-39,20,8
-35,20,15
-32,22,18
-26,20,19
-23,18,23
-20,15,29
-13,11,30
-9,8,26
-1,6,25
4,3,25
10,0,21
14,0,17
19,-4,17
24,-5,11
26,-2,7
30,-4,3
31,-6,1
29,-3,-3
27,-7,-4
26,-6,-3
24,-3,-1
20,-3,1
18,-3,1
12,-2,3
12,2,6
7,0,9
9,4,9
6,8,10
4,6,8
3,6,11
5,8,11
2,6,11
2,9,10
3,8,12
5,11,9
3,8,6
5,10,6
6,8,7
8,7,4
6,11,0
10,7,1
7,3,1
9,4,0
8,3,0
4,-3,0
5,0,1
0,0,0
1,0,3
0,1,1
1,2,1
0,0,2
2,0,2
0,0,4
4,0,7
7,-1,4
11,1,2
11,3,1
12,6,2
9,11,3
5,13,5
-4,15,6
-10,17,13
-20,23,18
-25,30,16
-23,37,14
-11,44,14
2,44,10
20,43,7
32,40,2
43,36,3
53,26,2
59,16,2
61,6,1
59,0,-2
57,-7,-1
52,-14,-4
41,-18,-5
31,-20,-5
19,-22,-6
5,-19,-7
-4,-17,-6
-16,-14,-7
-29,-10,-4
-36,-5,-6
-45,5,-5
-47,8,-6
-51,13,-5
-49,17,-7
-46,21,-8
-43,24,-5
-42,25,-7
-36,24,3
-33,20,2
-32,16,5
-30,11,7
-27,8,9
-21,2,15
-22,0,18
-17,-6,20
-17,-9,16
-12,-10,14
-6,-11,15
-1,-12,12
3,-9,11
7,-9,6
12,-8,4
15,-8,0
20,-1,2
20,-1,4
22,0,3
24,3,1
26,3,1
26,4,3
27,7,1
27,6,0
23,9,-2
22,11,1
21,11,1
21,11,1
21,10,3
16,14,3
19,14,4
14,9,3
14,10,4
17,12,6
15,12,3
15,10,1
13,10,3
14,12,3
14,12,4
13,10,3
16,10,4
14,10,-1
15,11,1
16,13,1
14,13,-1
16,9,0
11,9,0
10,6,0
9,2,-3
6,0,-5
1,-3,-5
2,-8,-8
-1,-5,-10
-3,-9,-10
-3,-10,-5
-4,-11,0
-4,-15,0
-5,-16,1
-1,-20,1
0,-21,0
2,-23,0
0,-21,0
-1,-25,3
-6,-24,0
-7,-22,0
-17,-20,3
-28,-15,11
-36,-13,12
-32,-9,10
-27,-6,6
-17,-4,2
-12,-7,0
-4,-11,-2
7,-18,0
18,-30,1
31,-45,2
36,-59,4
42,-71,2
43,-84,3
41,-91,6
30,-95,5
17,-94,2
5,-95,2
-12,-91,4
-32,-82,2
-51,-77,1
-71,-67,1
-89,-57,-2
-100,-48,0
-109,-38,-6
-115,-29,-7
-114,-22,-14
-107,-13,-16
-97,-8,-16
-85,-3,-18
-71,-3,-14
-54,-4,-12
-39,-3,-10
-18,-5,-8
-4,-13,-3
3,-15,1
11,-20,7
15,-25,9
14,-30,11
15,-31,13
15,-37,12
8,-32,7
3,-33,5
0,-30,0
-6,-33,-7
-11,-33,-13
-20,-35,-18
-22,-32,-24
-23,-34,-32
-24,-36,-38
-22,-35,-43
-22,-34,-46
-23,-33,-46
-21,-35,-48
-21,-36,-50
-18,-35,-48
-17,-29,-49
-23,-30,-46
-23,-28,-42
-26,-30,-39
-30,-27,-40
-32,-26,-34
-37,-24,-34
-36,-27,-29
-44,-25,-28
-47,-22,-30
-45,-23,-24
-45,-23,-26
-45,-24,-21
-45,-18,-22
-43,-22,-22
-37,-23,-21
-35,-22,-23
-32,-23,-24
-26,-24,-23
-21,-20,-22
-13,-19,-19
-6,-19,-18
-3,-19,-14
3,-17,-9
9,-20,-5
12,-18,-5
19,-20,-3
22,-20,1
23,-18,5
20,-14,4
26,-19,9
30,-14,7
30,-14,8
32,-10,6
31,-8,8
30,-10,9
24,-8,8
21,-6,11
15,-5,15
8,-2,18
0,2,19
-4,9,20
-1,9,20
0,10,16
8,10,18
15,9,14
25,7,11
33,0,8
41,-4,3
46,-9,2
46,-14,4
44,-18,-1
40,-18,1
35,-20,1
26,-17,0
19,-9,1
7,-4,-2
2,0,0
-11,9,0
-18,16,0
-27,21,1
-32,23,4
-36,16,3
-37,10,7
-40,3,5
-42,-4,4
-40,-9,-2
-40,-10,-6
-40,-12,-7
-42,-11,-11
-38,-13,-13
-39,-16,-11
-40,-11,-14
-38,-13,-11
-38,-12,-12
-35,-9,-5
-37,-3,-4
-35,-5,-2
-31,0,-1
-23,0,0
-20,3,9
-13,2,7
-4,4,10
5,3,11
8,6,8
19,7,12
26,8,11
34,5,10
38,1,7
35,0,4
36,-1,4
37,-3,7
37,0,7
35,1,10
30,0,13
29,0,7
24,-3,1
21,-2,-4
15,2,-4
12,3,-5
6,10,-5
0,13,-7
0,16,-9
-3,16,-10
-4,20,-13
-3,17,-14
-5,13,-17
-12,12,-17
-15,12,-13
-21,8,-10
-20,5,-5
-27,9,2
-27,14,8
-28,19,14
-27,24,17
-25,25,19
-24,20,17
-19,10,5
-18,-3,-12
-21,-12,-21
-22,-21,-28
-24,-31,-34
-29,-38,-32
-31,-41,-36
-29,-43,-34
-29,-44,-31
-26,-51,-33
-21,-52,-32
-16,-51,-30
-11,-53,-26
-11,-53,-21
-11,-50,-19
-11,-45,-9
-12,-33,-5
-16,-21,0
-14,-17,5
-12,-4,5
-4,-4,5
7,0,0
18,4,-1
32,9,-2
45,13,-8
56,16,-5
67,16,-5
75,12,1
77,3,5
78,-5,11
73,-12,14
65,-14,10
59,-17,11
46,-16,6
33,-14,7
22,-11,4
5,-8,3
-4,-3,3
-16,-4,6
-24,-4,9
-32,1,12
-35,5,11
-38,11,7
-40,9,3
-38,11,1
-34,15,-3
-34,14,-8
-32,16,-10
-35,16,-11
-33,15,-12
-35,22,-11
-37,26,-12
-36,27,-10
-40,25,-7
-46,24,2
-48,13,11
-41,5,16
-37,0,16
-29,-5,9
-25,2,10
-15,5,1
-6,8,0
0,13,-1
10,18,-4
17,18,-9
22,19,-10
30,18,-10
31,14,-10
32,9,-4
38,4,-1
37,-1,1
37,-5,1
36,-9,4
34,-7,7
32,-4,4
27,0,7
30,0,8
25,1,6
21,4,4
21,5,4
20,6,0
18,5,-3
16,6,-6
11,4,-8
10,2,-6
11,0,-8
6,0,-7
3,-7,-10
0,-8,-11
-1,-12,-7
-6,-7,-9
-10,-6,-11
-14,-9,-11
-15,-8,-10
-19,-8,-11
-26,-8,-12
-25,-7,-15
-31,-6,-15
-27,-10,-15
-31,-11,-13
-31,-10,-13
-31,-11,-7
-29,-13,-5
-29,-12,-2
-27,-13,-1
-22,-11,6
-15,-11,6
-12,-10,10
-5,-10,11
0,-10,11
8,-9,7
20,-5,4
26,-1,4
27,3,1
20,0,4
19,3,5
15,-1,9
8,2,13
-2,4,18
-5,4,20
-6,6,17
-3,12,13
11,14,16
22,17,9
36,21,5
40,16,0
47,3,-2
54,-1,-6
47,-8,-9
45,-15,-12
39,-16,-7
30,-15,-8
17,-17,0
6,-15,-2
-6,-7,-3
-25,-4,2
-46,-9,3
-61,-31,11
-59,-43,2
-59,-33,5
-57,-20,0
-60,-12,3
-59,-9,-1
-55,-7,-3
-57,-5,-1
-49,-1,-1
-43,2,0
-39,11,1
-33,13,5
-33,13,11
-25,8,16
-26,10,18
-21,7,23
-23,11,24
-16,7,27
-17,8,33
-13,9,43
-9,13,44
-5,17,50
6,16,45
13,8,39
24,-1,31
27,-8,22
31,-14,13
35,-11,3
35,-15,-6
35,-20,-12
28,-17,-17
23,-13,-23
15,-8,-18
9,-4,-13
3,0,-8
-3,8,-8
-9,14,-3
-16,20,-1
-19,29,3
-22,38,3
-27,46,7
-32,50,7
-31,52,14
-30,44,23
-28,26,40
-23,4,44
-16,-13,38
-11,-20,27
-11,-20,15
-11,-17,9
-10,-14,3
-14,-11,-5
-11,-4,-11
-17,5,-15
-22,12,-15
-20,22,-14
-20,29,-14
-20,24,-9
-20,23,-8
-20,20,-2
-20,17,-3
-17,12,1
-13,8,7
-13,6,12
-11,0,10
-14,-2,9
-9,-8,8
-10,-6,8
-11,-13,6
-11,-8,9
-12,-8,7
-9,-9,9
-6,-9,5
-2,-8,6
-3,-7,5
0,-4,4
7,-5,-3
9,0,-6
11,0,-8
6,4,-7
1,9,-3
1,15,0
-6,16,8
-16,22,16
-21,22,21
-26,25,20
-15,29,23
-7,29,17
9,26,21
22,22,17
37,12,16
46,5,10
53,-6,10
57,-16,1
57,-24,-1
49,-29,-8
43,-35,-7
33,-40,-10
23,-40,-9
6,-38,-12
-4,-31,-14
-19,-21,-13
-25,-15,-13
-35,-7,-10
-44,2,-11
-45,9,-14
-46,15,-12
-48,20,-9
-45,23,-11
-40,26,-5
-35,24,-6
-28,20,-7
-21,14,-5
-16,9,0
-13,4,-3
-12,1,-3
-8,0,-1
-9,2,-3
-9,-1,1
-10,-1,1
-11,0,1
-8,1,-4
-3,0,-3
-2,9,-10
5,9,-9
9,11,-15
17,12,-18
22,16,-20
26,17,-20
28,20,-25
30,24,-18
29,26,-16
29,27,-11
30,27,-4
34,30,-3
33,31,-1
33,36,1
31,36,0
32,41,-2
28,46,-6
27,47,-5
21,52,-4
27,49,-4
23,46,-3
17,45,-8
13,43,-7
12,42,-9
9,41,-12
9,39,-14
8,38,-15
4,34,-12
0,33,-15
0,32,-18
4,30,-18
-2,33,-17
-3,36,-12
0,29,-10
1,21,-4
2,11,1
3,3,6
1,1,12
1,0,20
2,-6,29
5,-11,31
6,-20,39
9,-25,45
10,-22,53
13,-16,56
20,-13,57
25,-17,52
29,-27,42
33,-34,34
32,-40,19
33,-48,7
34,-54,0
32,-57,-2
26,-61,-4
20,-64,2
20,-75,13
23,-141,38
-39,-355,107
-46,-310,143
-72,-272,157
-66,-188,132
-65,-128,117
-59,-112,119
-59,-114,132
-48,-130,140
-44,-137,141
-40,-133,130
-31,-110,102
-23,-85,79
-22,-67,61
-20,-57,48
-33,-44,39
-38,-32,26
-42,-27,20
-49,-19,14
-52,-13,14
-56,-6,10
-63,0,6
-67,8,4
-68,17,4
-71,23,3
-66,24,5
-68,27,-3
-60,32,-2
-57,31,-3
-51,33,-4
-42,30,-6
-40,34,-3
-36,33,0
-27,31,0
-23,28,0
-21,24,-1
-16,22,-2
-15,17,3
-17,14,6
-15,12,7
-14,9,7
-9,6,8
-1,7,6
5,9,7
11,11,9
17,11,10
25,14,12
33,16,13
38,17,10
43,20,9
44,23,6
46,23,2
45,20,0
43,18,0
41,18,-1
35,14,-2
28,16,-5
21,13,-1
12,18,0
5,19,-2
1,20,-1
-2,20,-3
-4,20,-7
-9,21,-5
-10,21,-4
-12,21,2
-16,24,1
-13,22,3
-13,23,2
-8,26,5
-11,24,3
-6,19,4
-5,16,-2
0,12,-5
0,8,-6
0,6,-10
-1,0,-9
-2,-2,-8
-2,-7,-6
-6,-12,-4
-7,-15,-3
-9,-18,-2
-8,-19,-1
-12,-16,-5
-14,-15,-1
-14,-13,0
-12,-17,-2
-8,-21,-4
-5,-28,-5
-3,-25,-11
-1,-18,-13
-5,-18,-11
-13,-15,-5
-17,-11,-2
-18,-9,9
-23,-8,14
-33,-5,22
-36,2,22
-27,2,21
-15,0,17
2,-6,10
17,-7,3
31,-19,-1
37,-29,-2
45,-33,-6
44,-37,-6
36,-39,-8
32,-35,-6
25,-31,-13
17,-29,-12
7,-25,-10
-3,-19,-8
-15,-20,-5
-24,-14,-5
-29,-7,0
-37,-1,-4
-40,1,-3
-43,8,-1
-47,13,-4
-46,16,-6
-48,15,-8
-45,15,-6
-44,11,-1
-39,10,-1
-36,10,0
-30,11,0
-27,12,3
-22,12,3
-18,11,8
-14,7,12
-11,7,14
-9,5,18
-7,6,17
-4,6,17
-1,4,18
4,4,20
10,0,12
19,-1,6
24,-5,3
30,-4,2
33,-2,0
40,-6,1
40,-6,2
40,-4,1
39,-3,0
38,-3,2
35,-2,1
28,0,-2
23,-2,-8
19,-1,-10
14,0,-8
5,0,-9
1,2,-12
-2,6,-13
-10,5,-12
-13,8,-10
-17,12,-12
-20,12,-13
-22,11,-12
-20,10,-11
-23,13,-14
-24,12,-16
-23,11,-12
-25,4,-12
-25,3,-12
-28,0,-14
-27,-2,-12
-30,-1,-11
-30,3,-13
-29,5,-14
-26,3,-17
-25,2,-15
-24,2,-16
-24,3,-17
-24,4,-18
-23,6,-16
-24,8,-16
-22,8,-18
-22,9,-17
-25,6,-20
-19,7,-20
-22,10,-17
-22,6,-14
-20,-1,-16
-15,-4,-15
-13,-8,-13
-13,-8,-11
-15,-9,-8
-19,-9,-8
-22,-7,-6
-28,-3,-6
-37,7,-2
-42,20,0
-41,31,1
-40,45,0
-26,58,-3
-16,67,-4
0,73,-9
9,68,-12
25,61,-9
33,48,-9
42,38,-8
48,22,-6
46,14,-4
45,4,-1
42,4,0
31,7,-1
26,8,0
19,12,-6
7,16,-6
-3,18,-8
-6,20,-12
-19,24,-12
-25,22,-17
-33,24,-15
-40,27,-16
-45,30,-18
-48,33,-16
-50,39,-17
-51,47,-15
-51,55,-15
-50,58,-12
-45,58,-10
-40,57,-6
-39,55,-5
-33,46,-3
-31,41,0
-26,37,5
-26,30,10
-22,19,11
-22,14,14
-14,5,16
-9,2,16
-2,-3,14
6,-9,12
11,-9,12
19,-9,11
23,-12,7
33,-12,9
38,-14,9
43,-14,15
46,-15,13
50,-17,14
54,-19,13
53,-18,12
54,-18,11
47,-16,6
45,-20,8
36,-15,0
30,-16,-1
23,-17,-11
14,-20,-19
8,-21,-23
1,-21,-18
-7,-19,-18
-14,-14,-19
-20,-10,-17
-25,-9,-14
-26,-3,-9
-29,-2,-5
-32,4,0
-33,7,2
-29,9,7
-29,10,15
-27,14,16
-29,18,18
-23,20,19
-24,18,17
-19,20,15
-17,16,13
-16,15,0
-16,10,-9
-13,4,-17
-13,-1,-20
-19,-3,-24
-24,-6,-21
-24,-7,-17
-26,-9,-9
-21,-5,-3
-22,0,0
-12,-2,8
-3,4,10
5,10,6
9,13,7
9,17,8
11,20,17
7,21,14
6,25,16
-2,22,20
-8,22,20
-13,18,22
-11,16,16
-5,14,9
5,14,8
14,14,5
20,13,5
34,12,4
42,7,4
50,6,7
53,-1,7
51,-8,8
49,-14,11
39,-19,12
31,-22,12
21,-24,11
9,-30,9
-2,-25,9
-15,-27,4
-26,-27,2
-34,-27,-3
-41,-30,-3
-47,-24,-7
-53,-23,-11
-57,-17,-16
-56,-13,-12
-54,-12,-8
-48,-7,-9
-48,-3,-7
-40,-3,-8
-34,-2,-4
-29,-10,-3
-24,-12,4
-19,-9,1
-17,-14,1
-18,-15,5
-16,-17,5
-20,-18,7
-20,-17,9
-21,-17,12
-18,-15,11
-16,-10,10
-10,-13,9
-1,-18,12
2,-22,14
8,-23,17
17,-19,12
21,-23,10
22,-20,5
25,-27,3
25,-29,0
23,-30,-1
21,-28,-6
17,-27,-9
13,-34,-10
8,-34,-11
1,-39,-12
-8,-48,-15
-16,-54,-12
-20,-43,-8
-22,-37,-11
-27,-26,-12
-32,-28,-8
-35,-17,-8
-37,-13,-10
-31,-10,-6
-30,-16,-3
-32,-18,-5
-29,-17,0
-24,-11,0
-18,-7,2
-15,-6,2
-13,-2,-2
-9,-2,1
-8,0,4
-7,1,8
-5,5,14
-6,10,22
-1,13,26
-2,12,31
-3,11,40
-2,7,47
1,0,58
0,-7,59
-1,-15,59
-2,-18,57
0,-16,51
-2,-12,41
-5,-3,34
-3,-2,22
-3,-3,10
-5,-9,3
0,-14,1
-1,-21,0
-5,-22,4
-1,-18,-1
0,-16,0
-4,-11,-1
-7,-7,3
-13,0,7
-18,4,11
-25,14,19
-38,17,23
-44,21,29
-42,21,26
-36,20,25
-26,16,16
-19,9,12
-7,1,4
3,-8,1
9,-15,-2
14,-22,-6
16,-24,-9
11,-27,-15
7,-30,-11
0,-33,-14
-8,-40,-11
-16,-40,-10
-24,-36,-13
-33,-33,-12
-42,-29,-15
-48,-27,-13
-59,-19,-15
-63,-14,-14
-64,-4,-14
-68,0,-13
-67,4,-11
-64,5,-11
-59,8,-11
-56,13,-11
-49,11,-9
-43,13,-9
-39,9,-5
-36,6,-5
-31,0,-4
-26,-7,-2
-22,-15,5
-22,-17,6
-24,-18,6
-24,-19,11
-21,-20,14
-18,-18,19
-17,-17,22
-15,-14,21
-11,-7,21
-5,-4,19
2,-5,19
8,-3,9
18,-9,5
18,-11,-3
18,-13,-9
17,-13,-17
17,-6,-23
15,-9,-24
9,-7,-21
5,-8,-15
2,-8,-11
1,-10,-13
4,-12,-21
-1,-16,-25
-6,-18,-30
-10,-19,-31
-20,-16,-31
-23,-13,-24
-22,-7,-24
-26,0,-23
-28,5,-19
-31,12,-16
-32,20,-15
-26,24,-11
-27,28,-1
-25,33,2
-22,34,6
-17,31,10
-21,27,7
-20,19,2
-20,8,-4
-25,0,-8
-23,-6,-7
-26,-11,-14
-33,-11,-16
-34,-12,-18
-39,-11,-16
-41,-8,-13
-48,-3,-14
-55,-1,-11
-54,0,-4
-52,3,2
-53,5,10
-48,7,13
-46,11,16
-45,12,13
-39,15,14
-34,17,10
-27,26,9
-20,33,6
-16,42,7
-18,50,6
-16,55,3
-15,63,5
-15,68,4
-25,81,9
-36,88,13
-34,94,10
-25,100,7
-16,104,4
-10,108,0
0,97,0
6,85,0
19,80,0
28,76,0
32,74,-2
36,74,0
34,78,-4
33,84,-10
27,93,-13
21,107,-18
13,122,-24
3,134,-30
-4,146,-35
-17,152,-37
-30,152,-41
-42,146,-46
-50,135,-52
-64,131,-63
-75,130,-71
-85,132,-72
-95,143,-70
-101,155,-68
-109,160,-66
-116,159,-62
-120,147,-50
-123,129,-41
-123,108,-26
-124,83,-14
-121,59,6
-118,41,14
-112,27,25
-108,13,29
-96,-4,29
-84,-19,20
-72,-34,9
-62,-45,7
-49,-56,8
-44,-67,15
-33,-79,22
-21,-88,29
-10,-93,30
-3,-94,34
5,-90,44
10,-85,50
18,-77,54
26,-74,54
33,-63,45
38,-57,38
41,-42,26
46,-28,17
50,-17,14
49,-3,7
51,6,5
54,6,3
52,0,14
55,-4,18
55,-13,21
57,-15,28
55,-13,38
57,-9,45
62,-12,60
64,-14,59
66,-15,60
69,-18,58
70,-18,50
67,-15,50
62,-11,48
56,-5,48
49,-2,49
43,4,48
36,6,42
30,9,38
25,6,32
20,1,26
13,-8,20
6,-19,12
5,-35,9
4,-50,7
1,-62,7
1,-74,3
0,-81,1
0,-82,-4
-3,-76,-10
0,-63,-18
0,-42,-21
-7,-25,-19
-14,-9,-15
-19,1,-13
-25,17,-3
-36,30,14
-41,44,31
-41,57,37
-33,59,33
-19,57,29
-9,53,19
1,39,8
6,23,-1
13,-1,-6
15,-17,-12
12,-29,-14
11,-39,-18
4,-47,-22
0,-54,-20
-9,-56,-18
-13,-57,-14
-16,-55,-12
-19,-53,-11
-21,-48,-11
-23,-45,-11
-27,-36,-13
-28,-31,-10
-32,-27,-9
-34,-19,-11
-38,-9,-11
-37,5,-6
-37,13,-9
-29,23,-6
-22,25,-5
-18,27,-2
-14,28,2
-11,25,8
-9,20,9
-11,16,9
-10,16,16
-12,12,21
-11,11,26
-18,9,26
-17,7,30
-15,12,28
-9,11,28
-6,13,28
0,15,27
2,18,23
3,19,25
6,27,21
8,26,22
9,27,15
13,21,17
14,9,12
21,-4,6
19,-22,-2
17,-29,-7
10,-30,-8
5,-23,-3
0,-11,2
-7,-1,6
-13,12,7
-11,15,14
-12,10,20
-9,4,25
-7,0,27
-4,-10,26
-2,-20,21
1,-31,19
4,-38,16
9,-51,10
10,-58,3
8,-67,2
5,-70,0
2,-74,2
-2,-69,-2
-6,-71,-5
-14,-67,-10
-24,-61,-9
-35,-52,-15
-42,-48,-5
-47,-49,-6
-47,-54,-8
-46,-62,-12
-44,-70,-20
-41,-78,-18
-34,-85,-22
-28,-89,-19
-20,-94,-18
-12,-94,-18
-9,-90,-15
0,-95,-16
11,-95,-17
21,-95,-15
26,-97,-7
29,-96,-2
28,-86,7
24,-72,16
16,-44,28
3,-16,40
11,11,26
21,29,-3
30,27,-31
32,23,-47
33,18,-50
35,10,-45
36,7,-42
34,3,-32
31,1,-27
29,-1,-18
26,-11,-14
19,-18,-8
14,-27,-5
10,-35,0
0,-38,-4
-9,-43,-3
-12,-41,-2
-20,-38,0
-26,-30,-4
-33,-25,-4
-39,-21,-4
-43,-14,-6
-43,-2,-8
-44,9,-15
-40,28,-22
-37,46,-26
-31,47,-31
-24,55,-34
-22,50,-32
-17,43,-21
-16,38,-14
-10,20,-9
-5,10,-14
-4,-1,-9
-4,-12,0
-4,-6,7
0,4,17
5,13,26
10,30,31
18,41,34
29,47,38
40,45,35
46,37,29
51,31,24
52,22,16
53,21,10
51,27,1
47,28,-8
41,32,-12
37,22,-18
29,17,-23
21,5,-24
14,-1,-22
5,-5,-19
0,-11,-14
-6,-11,-10
-13,-7,-6
-11,-11,7
-9,-11,13
-8,-9,15
-5,-9,16
0,-9,13
2,-9,3
7,-13,4
5,-17,0
5,-17,0
7,-38,-5
7,-37,-5
-1,-19,-14
-2,-44,-14
-2,-46,-24
-10,-37,-28
-8,-56,-24
-15,-49,-22
-13,-59,-20
-14,-57,-17
-18,-47,-18
-15,-67,-8
-12,-59,-7
-9,-45,-8
-7,-41,-12
-6,-20,-16
-3,-19,-20
-5,-8,-21
-6,6,-23
-5,2,-15
-1,5,-13
0,-1,-13
0,-1,-14
-2,0,-9
-2,0,-9
-5,-1,-5
-12,0,4
-19,3,9
-12,5,10
-5,4,8
4,0,4
21,-1,6
32,-7,3
40,-10,1
45,-9,0
49,-16,-4
51,-21,-6
45,-21,-4
40,-28,-3
37,-35,-5
31,-44,-2
19,-48,-5
11,-50,-9
5,-56,-4
-6,-56,-5
-11,-48,-3
-21,-42,-2
-25,-30,0
-31,-17,2
-33,-4,-3
-32,11,-8
-30,22,-19
-31,32,-29
-26,31,-41
-28,28,-52
-26,17,-53
-26,5,-51
-22,-10,-40
-22,-26,-26
-20,-38,-6
-13,-49,7
-5,-56,17
2,-57,25
10,-47,28
18,-38,28
29,-28,22
36,-20,19
44,-6,9
51,-1,1
59,-2,-2
59,0,-13
55,-10,-19
52,-20,-22
48,-38,-24
46,-49,-27
37,-66,-27
31,-64,-25
25,-68,-24
15,-56,-23
10,-45,-19
7,-33,-13
3,-11,-11
5,-2,-8
1,15,-3
5,31,2
8,54,8
8,69,9
11,83,12
20,92,15
23,87,16
27,81,16
26,67,18
28,50,22
26,41,23
26,33,24
25,28,22
24,24,22
26,24,17
25,21,13
25,23,15
26,23,11
30,18,7
32,21,-3
30,21,-4
26,22,-7
26,20,-5
25,9,-3
26,2,1
29,-3,5
33,-14,6
36,-16,7
42,-18,10
44,-13,10
48,-8,12
48,-3,15
51,3,15
56,2,12
62,3,7
64,4,2
64,0,2
65,0,6
67,-3,8
70,1,11
67,8,18
61,18,22
66,37,23
79,55,23
95,73,23
112,94,26
125,123,34
133,151,44
144,185,51
155,204,57
163,225,61
168,240,69
169,248,70
172,249,74
174,245,77
175,229,84
176,211,90
175,194,95
174,170,99
175,147,103
175,124,108
173,103,114
173,87,111
173,76,113
170,73,116
171,78,119
174,85,121
175,94,120
178,103,126
183,115,127
189,124,128
197,131,133
203,133,137
216,136,140
221,135,143
226,135,145
229,136,145
234,135,144
237,139,141
239,140,142
238,144,133
241,150,127
241,144,121
240,140,112
237,136,108
235,123,112
224,108,120
218,88,134
208,64,140
206,42,139
194,26,132
188,12,124
179,1,115
171,-6,105
161,-7,91
149,-11,81
138,-9,73
129,-7,69
123,-9,63
117,-4,63
111,-3,66
108,-7,68
108,-7,70
108,-9,72
109,-11,74
113,-18,75
121,-22,75
129,-25,76
131,-28,75
138,-35,74
139,-38,68
137,-41,63
135,-45,58
134,-48,54
124,-48,46
119,-48,42
110,-41,32
101,-36,32
92,-30,32
84,-26,26
72,-25,30
62,-21,26
57,-22,20
48,-16,5
35,-16,-6
26,-16,-16
14,-16,-23
0,-20,-29
-12,-16,-28
-24,-17,-23
-36,-14,-21
-47,-13,-17
-51,-7,-15
-57,-10,-14
-63,-7,-8
-69,-7,-3
-75,-5,-1
-78,-1,-7
-84,1,-7
-91,4,-13
-102,4,-13
-111,8,-21
-114,8,-30
-114,1,-42
-107,-2,-54
-98,-7,-59
-92,-14,-67
-82,-16,-68
-72,-23,-64
-64,-29,-63
-58,-33,-56
-54,-37,-48
-49,-41,-40
-48,-43,-34
-44,-42,-27
-45,-39,-29
-42,-35,-30
-46,-32,-33
-44,-33,-30
-56,-25,-27
-65,-25,-25
-69,-21,-23
-74,-17,-20
-80,-14,-19
-82,-15,-16
-80,-17,-14
-80,-14,-21
-78,-14,-22
-72,-13,-24
-66,-16,-25
-64,-20,-25
-59,-23,-26
-58,-27,-27
-54,-29,-26
-51,-26,-26
-49,-28,-23
-50,-35,-21
-50,-41,-18
-50,-48,-13
-53,-49,-10
-49,-47,-11
-47,-42,-9
-46,-45,-13
-46,-44,-12
-40,-44,-17
-35,-41,-22
-35,-39,-28
-32,-39,-31
-32,-33,-34
-33,-32,-27
-32,-16,-25
-31,-14,-21
-33,-4,-13
-31,8,-11
-33,10,-2
-31,14,6
-30,12,15
-33,6,24
-27,0,33
-26,-4,36
-23,-3,39
-24,-6,36
-16,-9,31
-14,-16,28
-9,-23,27
-6,-26,25
-1,-28,20
-3,-29,17
-5,-32,16
-1,-26,8
-6,-21,8
-6,-18,10
-6,-11,12
-7,-9,10
-9,-3,9
-9,-4,8
-12,-4,11
-10,-8,7
-9,-14,8
-9,-19,9
-8,-28,8
-6,-30,9
-12,-28,7
-12,-22,5
-16,-15,2
-20,-7,-2
-22,-4,-11
-22,-2,-16
-24,-10,-14
-27,-9,-14
-27,-9,-17
-23,-12,-20
-20,-13,-18
-14,-17,-21
-10,-24,-20
-14,-28,-25
-19,-31,-21
-25,-36,-23
-31,-38,-19
-47,-32,-21
-56,-36,-22
-63,-34,-21
-73,-24,-25
-65,-25,-24
-61,-20,-30
-53,-19,-31
-40,-18,-37
-32,-20,-39
-20,-22,-36
-12,-26,-33
-8,-31,-33
-8,-39,-32
-11,-40,-32
-15,-54,-30
-22,-59,-35
-32,-63,-35
-42,-64,-34
-49,-62,-30
-58,-61,-34
-67,-58,-36
-77,-50,-36
-83,-41,-34
-90,-34,-33
-95,-23,-37
-97,-13,-38
-99,-7,-39
-96,-8,-42
-99,-15,-52
-99,-23,-55
-96,-33,-56
-94,-35,-51
-95,-35,-46
-89,-37,-35
-82,-36,-28
-75,-38,-23
-71,-39,-21
-69,-40,-16
-60,-43,-9
-54,-41,-1
-46,-38,3
-37,-33,11
-31,-24,12
-19,-20,14
-8,-17,8
-4,-18,-4
3,-19,-6
8,-18,-10
7,-15,-10
8,-15,-13
10,-10,-11
9,-5,-7
11,-3,-6
12,-1,-3
11,1,0
14,-1,3
12,5,4
14,7,7
14,9,3
11,8,0
16,4,-5
13,0,-6
12,-8,-11
10,-18,-15
7,-23,-19
1,-28,-19
0,-31,-22
-3,-31,-25
-2,-30,-26
-6,-30,-33
-11,-25,-35
-1,-25,-34
-4,-23,-39
-8,-20,-38
-11,-20,-37
-16,-17,-33
-23,-16,-28
-24,-11,-19
-22,-7,-10
-19,-13,-2
-18,-15,-1
-15,-16,-2
-13,-16,-8
-17,-19,-16
-20,-17,-20
-24,-21,-23
-27,-17,-27
-32,-14,-28
-34,-13,-29
-29,-9,-27
-29,-7,-29
-30,-7,-25
-33,-3,-31
-32,-6,-34
-30,-7,-36
-28,-9,-42
-26,-12,-40
-30,-13,-36
-36,-15,-29
-42,-15,-23
-49,-18,-17
-60,-16,-10
-66,-16,-5
-69,-12,-7
-63,-8,-12
-58,-3,-21
-43,-2,-26
-30,1,-31
-19,3,-32
-11,5,-37
-6,2,-36
-1,-1,-33
-5,-4,-31
-9,-5,-32
-13,-8,-28
-23,-11,-25
-35,-17,-23
-43,-20,-26
-50,-23,-27
-60,-20,-30
-66,-20,-33
-70,-16,-32
-73,-9,-33
-74,-5,-38
-77,-2,-39
-72,0,-38
-70,6,-39
-65,9,-38
-57,8,-35
-54,12,-35
-46,14,-27
-39,13,-26
-33,9,-20
-28,-1,-13
-20,-6,-8
-18,-8,-3
-19,-10,0
-19,-2,7
-21,2,11
-21,12,15
-24,19,15
-22,27,17
-23,31,15
-20,36,8
-14,29,3
-13,25,0
-7,18,-1
-3,15,-4
4,10,-3
12,12,-4
22,16,-3
31,17,-3
38,18,-2
48,25,-6
54,29,-7
60,30,-1
63,21,9
72,10,17
75,2,22
81,-4,24
84,-7,25
87,-4,24
86,-2,22
86,0,23
87,-2,23
84,-2,24
78,-6,21
73,-7,16
65,-8,17
60,-5,15
55,-4,13
43,-1,8
35,0,5
30,1,-2
21,3,-7
11,6,-11
1,0,-13
-3,0,-17
-14,-5,-23
-19,-11,-25
-24,-17,-27
-27,-21,-26
-34,-29,-29
-37,-39,-24
-37,-40,-22
-38,-40,-17
-38,-37,-19
-37,-35,-16
-33,-31,-16
-25,-28,-13
-15,-29,-14
-3,-27,-12
7,-29,-17
20,-24,-12
23,-27,-7
24,-25,0
17,-22,4
7,-16,13
-5,-13,21
-14,-8,21
-9,-1,20
-9,0,16
-3,1,13
3,3,7
7,6,7
7,4,3
9,6,1
8,4,-3
3,3,-4
0,-5,-7
-3,-8,-12
-9,-20,-17
-10,-30,-17
-17,-38,-24
-20,-45,-24
-26,-52,-29
-31,-55,-33
-32,-57,-35
-32,-63,-44
-30,-62,-50
-31,-62,-58
-32,-62,-58
-33,-59,-63
-35,-52,-62
-33,-43,-63
-32,-38,-64
-31,-28,-65
-27,-22,-61
-29,-14,-55
-27,-10,-54
-24,-8,-53
-20,-7,-46
-20,-6,-44
-24,-3,-42
-25,-1,-35
-31,2,-32
-30,2,-28
-29,8,-26
-28,6,-21
-25,3,-18
-21,0,-20
-13,-2,-18
-9,-8,-19
-2,-9,-13
1,-11,-14
10,-13,-11
15,-15,-12
21,-16,-10
26,-16,-10
29,-17,-13
30,-18,-13
30,-12,-15
26,-9,-17
22,-4,-21
19,-4,-21
15,0,-27
11,3,-22
3,8,-20
-1,12,-21
-4,13,-25
-9,14,-24
-12,11,-19
-14,10,-18
-14,7,-14
-15,8,-16
-15,3,-13
-14,1,-11
-13,-4,-10
-11,-8,-7
-10,-13,-7
-9,-13,-9
-10,-15,-10
-8,-13,-5
-9,-10,-6
-8,-12,-2
-9,-6,0
-8,-4,1
-9,-5,2
-8,-3,0
-9,-2,1
-7,0,1
-7,-1,8
-5,-3,5
-2,0,9
-1,0,8
1,-3,8
5,-2,12
4,-2,15
2,0,21
4,1,20
4,-3,23
1,-5,29
0,-5,31
1,-3,32
5,0,32
13,2,28
25,5,26
33,7,26
47,9,23
52,10,20
57,8,20
59,2,20
58,0,20
55,-4,20
53,-7,21
42,-11,18
33,-15,14
25,-16,10
17,-12,8
10,-13,3
5,-9,-2
-4,-8,-5
-4,-3,-8
-5,-6,-11
-9,-2,-14
-6,0,-13
-5,-1,-10
-5,-3,-8
-5,-1,-4
-5,-4,-3
-3,-4,-1
0,-5,1
0,-5,2
-1,-6,6
-3,-9,7
-2,-11,10
-3,-13,16
-5,-16,17
-8,-17,21
-9,-12,18
-12,-11,19
-11,-9,16
-11,-9,14
-9,-6,9
-9,-3,7
-2,-2,8
2,1,5
5,1,6
11,0,5
21,4,5
27,5,2
35,4,3
40,2,1
45,2,2
50,2,6
50,1,6
51,1,5
52,-1,10
47,-2,11
49,-2,13
48,-3,15
43,0,14
45,-4,14
43,-2,13
40,-2,11
39,-3,11
34,-1,6
29,3,5
27,7,1
20,4,0
14,11,-1
9,13,-5
4,14,-3
-2,17,0
-5,11,0
-12,15,1
-16,14,2
-18,16,2
-20,20,4
-26,18,4
-24,15,6
-26,14,7
-29,10,4
-32,4,9
-29,-2,7
-28,-7,6
-27,-13,6
-22,-17,6
-16,-21,1
-13,-23,-2
-6,-26,-7
-5,-25,-9
-8,-20,-8
-12,-18,-10
-13,-14,-5
-21,-8,-1
-30,-4,1
-31,1,11
-32,8,15
-25,14,12
-10,16,13
3,14,14
19,12,15
33,9,16
45,0,19
57,-5,20
63,-11,20
68,-19,18
68,-25,15
64,-30,10
56,-31,12
47,-31,9
41,-34,2
29,-33,2
18,-28,-4
7,-26,-7
-3,-19,-10
-9,-19,-13
-23,-12,-15
-29,-11,-16
-33,-2,-17
-40,-1,-16
-43,4,-15
-44,7,-13
-42,9,-11
-40,10,-9
-37,9,-5
-32,8,-3
-29,4,4
-30,1,4
-24,-5,10
-21,-11,15
-16,-16,22
-17,-18,19
-15,-19,19
-14,-17,16
-7,-20,14
-7,-16,9
-2,-14,7
5,-17,0
11,-13,-2
15,-15,-3
19,-17,-5
20,-11,-9
23,-10,-11
25,-7,-11
28,-4,-10
28,-4,-7
26,0,-8
25,0,-4
23,0,-7
20,3,-8
20,6,-5
15,12,-4
13,9,-6
11,5,-2
11,7,-1
5,3,-3
5,-2,0
2,-3,-3
-2,-5,-4
-1,-4,-6
-6,-6,-5
-3,-5,-6
-3,-6,-8
-3,-6,-8
-4,-6,-7
-1,-7,-11
-3,-8,-10
1,-9,-11
3,-6,-14
5,-7,-14
7,-7,-11
10,-8,-12
12,-9,-8
8,-9,-6
9,-9,-7
6,-7,-7
3,-7,-5
0,-5,-4
-2,-5,-5
-2,-2,-4
-3,-2,-4
-1,-1,-1
-3,-1,-2
0,-3,1
1,-9,0
5,-10,0
9,-12,-2
9,-14,-5
10,-9,-2
4,-7,-3
3,-9,-2
0,-8,5
-12,-2,9
-20,-3,13
-18,0,12
-14,1,10
-3,2,3
14,0,2
28,0,0
41,-1,-1
53,-7,-1
57,-8,-5
58,-14,-5
59,-13,-5
55,-15,-11
45,-17,-13
38,-15,-15
25,-16,-20
12,-13,-19
0,-10,-22
-9,-9,-26
-23,-8,-25
-34,-5,-23
-43,-4,-24
-53,0,-22
-54,2,-22
-53,-1,-19
-54,0,-19
-47,-1,-18
-45,-2,-16
-36,-4,-14
-30,-3,-10
-28,-5,-8
-20,-7,-2
-18,-9,-5
-15,-11,1
-11,-12,9
-9,-10,11
-12,-11,13
-7,-8,14
-6,-10,17
0,-12,16
5,-12,15
13,-12,17
18,-9,13
23,-9,14
27,-5,14
31,-4,10
37,0,12
39,3,14
37,3,12
37,5,11
40,4,12
37,7,15
33,6,11
31,6,8
28,2,11
25,2,3
19,3,5
17,-1,5
13,0,2
15,0,0
13,-4,1
8,-4,0
11,-4,-1
11,-5,0
14,-5,-3
17,-9,-1
16,-5,1
19,-4,0
19,-4,1
20,-1,0
19,-1,1
19,-1,1
20,-4,0
18,-4,-3
16,-4,-4
14,-5,-7
10,-3,-7
8,-4,-5
4,-4,-5
3,-3,-4
1,-4,-3
-1,-4,-5
-1,-11,-6
-1,-9,-3
0,-15,-1
-2,-16,0
0,-20,-1
1,-27,-3
2,-31,-2
1,-35,-2
1,-40,0
7,-44,0
10,-47,-4
8,-45,-1
3,-48,-2
0,-47,4
-8,-46,6
-22,-42,11
-32,-37,18
-46,-31,18
-44,-27,20
-39,-22,21
-35,-21,17
-28,-18,12
-23,-17,13
-12,-19,10
-3,-20,1
2,-22,-3
9,-23,-3
15,-21,-7
15,-21,-10
16,-20,-14
9,-15,-24
2,-10,-26
-6,-7,-27
-14,-4,-32
-25,-4,-32
-41,-1,-33
-54,-2,-29
-67,-3,-26
-76,-3,-24
-84,-5,-22
-93,-7,-19
-98,-7,-19
-98,-6,-18
-100,-10,-18
-91,-8,-14
-90,-8,-15
-80,-10,-14
-72,-14,-13
-61,-16,-13
-45,-18,-12
-33,-27,-12
-23,-26,-14
-18,-23,-7
-11,-25,-7
-5,-22,-5
2,-21,-5
4,-17,-4
9,-15,-5
16,-15,-6
17,-13,-8
17,-14,-7
20,-14,-8
23,-12,-4
21,-16,-3
25,-17,-2
21,-16,-1
23,-14,-3
21,-10,-2
21,-12,-6
20,-11,-5
19,-13,-5
23,-15,-7
22,-11,-6
23,-11,-7
21,-9,-5
22,-8,-6
22,-8,-5
21,-5,-8
21,-4,-7
21,-6,-7
18,-3,-5
16,-4,-5
19,-2,-5
16,2,-3
16,1,-6
12,3,0
10,5,-4
11,3,-3
13,4,-1
11,3,-5
9,1,-4
11,3,-1
12,3,0
13,4,0
8,3,2
10,0,0
10,2,2
10,5,0
11,6,1
12,6,3
15,4,5
16,5,4
20,5,6
18,-1,0
23,-5,-3
24,-9,-7
22,-9,-12
20,-9,-10
16,-10,-8
16,-10,-4
10,-8,0
4,-6,6
0,-6,15
-4,1,18
-5,5,23
-4,5,25
8,7,26
18,8,27
24,5,27
36,5,22
47,1,21
53,-1,18
57,-2,16
57,-7,14
54,-9,15
51,-11,10
45,-13,6
37,-12,2
29,-11,4
21,-12,3
10,-8,0
4,-8,0
-6,-3,3
-6,0,6
-11,-2,7
-10,-2,10
-12,-2,7
-11,1,6
-9,0,7
-9,-3,6
-4,-6,8
-4,-2,4
-2,-4,6
0,-2,4
-1,-2,6
0,0,6
1,-2,9
-2,0,11
-3,-1,8
-6,0,6
-4,0,6
-2,-2,4
0,-4,2
5,-3,3
6,-3,4
10,-5,3
18,-2,4
24,-2,3
28,-2,3
33,1,2
37,-2,5
41,-2,5
41,-5,6
41,-5,1
39,-4,1
36,-3,1
38,-2,2
34,1,1
31,-1,-1
24,0,-1
23,0,-2
20,0,0
15,-1,0
11,-1,1
11,-2,2
13,-6,3
13,-4,2
11,-5,2
10,-4,2
11,-6,-3
9,-1,-4
10,0,-5
5,1,-9
2,4,-11
3,2,-8
-3,1,-9
-4,2,-7
-2,3,-5
-7,2,-2
-8,3,-2
-12,0,2
-12,0,2
-12,-2,1
-17,-1,1
-18,0,0
-18,0,-2
-21,-3,0
-19,-3,1
-21,0,0
-16,-2,0
-16,-3,3
-14,-4,2
-5,-6,3
-2,-4,4
5,-6,0
11,-5,0
11,-3,1
9,-3,4
8,-2,4
6,-6,6
3,-6,11
-1,-4,12
0,-1,11
1,1,9
5,3,12
14,2,8
26,8,6
33,5,2
48,10,1
56,5,0
62,5,-4
63,2,-6
62,1,-5
56,1,-3
49,-1,-5
39,-5,-2
26,-8,-3
16,-6,-6
3,-2,-2
-7,-1,-4
-15,-1,-2
-26,-2,-3
-32,1,-4
-35,-4,-4
-38,-6,-6
-37,-7,-5
-36,-5,-10
-38,-6,-10
-36,-9,-10
-30,-8,-7
-27,-8,-9
-26,-6,-7
-24,-3,-7
-24,0,-5
-19,-3,-1
-18,0,0
-19,2,1
-18,3,3
-19,3,6
-19,3,5
-14,3,4
-8,4,6
0,-1,3
4,-2,0
15,0,0
20,3,-2
32,1,0
39,-3,-1
46,0,-6
51,-1,-6
54,-1,-9
58,-2,-11
57,-4,-10
57,-10,-9
56,-9,-11
50,-8,-14
42,-10,-15
31,-8,-16
25,-6,-16
15,-8,-14
6,-4,-14
-3,-2,-14
-8,-4,-15
-14,-6,-12
-22,-8,-14
-24,-11,-11
-28,-9,-8
-30,-7,-8
-24,-10,-9
-25,-8,-12
-21,-10,-10
-19,-8,-6
-17,-4,-9
-18,-2,-9
-15,-1,-5
-12,0,-5
-10,0,-3
-9,0,-2
-7,-1,-3
-8,0,-2
-10,0,-1
-9,-3,0
-9,-4,0
-9,-6,1
-10,-10,0
-16,-7,0
-12,-12,5
-9,-12,2
-11,-12,2
-6,-14,2
-1,-14,3
1,-16,3
6,-15,3
6,-13,5
13,-13,2
20,-12,2
22,-11,0
24,-6,1
20,-3,2
11,-3,6
9,-3,7
-1,0,11
-12,3,16
-19,4,20
-21,7,20
-17,7,23
-5,11,20
5,10,12
15,9,7
28,6,7
38,4,6
44,-2,5
48,-3,1
45,-8,0
45,-13,-3
38,-16,-2
29,-23,-6
17,-18,-8
9,-17,-8
-7,-14,-9
-15,-12,-9
-26,-9,-9
-33,-4,-10
-41,0,-8
-45,2,-8
-46,3,-9
-49,8,-6
-46,10,-4
-45,11,-4
-39,10,0
-32,9,4
-25,4,4
-21,5,5
-17,1,10
-14,-1,15
-12,-6,17
-9,-7,16
-5,-7,20
-7,-10,20
-9,-9,21
-9,-12,23
-9,-16,22
-6,-13,19
-4,-15,18
1,-11,16
7,-10,10
15,-10,9
20,-10,6
26,-8,5
29,-8,1
32,-7,3
34,-5,0
33,-3,-1
33,-4,-1
31,-4,0
27,-3,1
21,-2,3
17,-2,2
12,-2,6
7,3,3
1,3,2
0,5,0
-4,3,0
-5,5,-1
-7,6,0
-5,5,-2
-8,2,-5
-7,3,-4
-7,0,-6
-4,3,-4
-6,1,-7
-7,3,-6
-3,4,-6
-4,3,-6
-3,0,-3
-3,0,-3
1,0,-2
-2,-3,-2
-3,-1,-2
-1,1,1
-2,1,-1
-2,0,0
-1,0,0
-1,-2,4
-5,-2,2
-2,-1,3
-6,0,2
-4,0,4
-4,0,6
-6,0,5
-5,1,4
-3,-4,5
-4,-2,6
0,-5,3
0,-4,6
2,-6,4
5,-6,4
9,-7,1
15,-8,-4
21,-6,-5
23,-4,-6
22,-1,-4
20,1,-7
21,3,-4
19,3,0
12,5,4
7,1,9
8,0,11
16,-5,9
29,-4,5
42,-6,1
50,-8,1
59,-9,0
64,-14,-1
66,-19,-6
63,-19,-7
57,-15,-11
53,-18,-14
45,-18,-16
32,-14,-19
15,-13,-22
6,-11,-21
-9,-8,-22
-23,-3,-25
-29,2,-25
-42,8,-25
-48,10,-21
-53,13,-15
-52,16,-12
-51,14,-9
-47,14,-1
-41,13,-1
-29,11,5
-23,5,3
-14,0,8
-9,-5,9
-3,-7,9
0,-11,11
4,-10,12
4,-12,13
1,-13,16
0,-10,16
1,-12,22
2,-7,18
7,-7,19
12,-6,20
19,-3,17
24,-2,17
34,0,21
39,5,17
48,2,19
50,7,20
56,3,20
54,3,19
56,6,20
55,3,23
53,5,19
50,5,17
45,7,19
41,7,18
34,7,15
29,8,13
23,9,13
17,8,9
13,7,9
10,7,8
4,10,7
7,12,6
7,9,2
4,11,0
7,6,0
4,5,-1
3,5,-1
2,1,-5
0,0,-1
-4,-1,-4
-9,-1,-2
-14,-1,-5
-17,-3,-7
-20,-4,-5
-22,-2,-6
-28,-5,-8
-26,-4,-8
-27,-4,-7
-29,-2,-5
-29,-3,-6
-29,0,-3
-26,-2,-2
-21,-5,-2
-18,-1,-3
-12,-3,-2
-8,-4,-1
-5,-4,-2
-1,-3,-1
1,-4,2
3,-5,1
7,-8,1
8,-7,1
14,-2,-3
14,1,-4
8,3,-2
2,6,-3
0,9,-7
-7,12,0
-17,17,10
-27,20,10
-26,19,14
-18,18,9
-6,17,11
10,14,6
24,16,7
29,10,4
41,6,4
43,2,4
48,-4,-2
47,-3,-1
40,-10,-8
31,-12,-9
22,-15,-9
12,-15,-12
1,-13,-11
-11,-12,-13
-22,-6,-13
-32,-3,-12
-42,2,-11
-50,5,-8
-60,11,-7
-61,13,-5
-64,20,-3
-62,18,-1
-59,19,1
-50,16,2
-39,11,5
-32,7,5
-20,5,6
-11,0,6
-4,-3,8
2,-4,10
4,-10,6
5,-13,6
7,-16,8
7,-14,8
8,-13,14
7,-13,13
9,-7,14
10,-7,10
13,-4,8
14,0,8
17,3,6
19,5,5
21,4,5
19,7,4
25,5,5
22,3,3
22,4,3
22,3,2
24,0,4
22,1,1
19,2,3
16,2,4
16,2,6
11,3,1
11,7,1
8,3,0
7,5,-2
8,5,-3
5,9,-6
5,5,-4
4,5,-8
5,3,-9
2,-1,-11
-2,-1,-9
-4,-5,-8
-5,0,-8
-7,-2,-7
-3,-3,-5
-3,-4,-4
-2,-2,-3
-4,-7,0
-2,-6,0
-2,-5,3
-4,-4,3
-5,-3,5
-5,-1,8
-4,0,9
-7,0,7
-6,1,1
0,0,3
0,-2,1
3,-2,-1
4,-3,-1
8,-3,1
8,-4,0
10,-5,0
15,-8,0
21,-5,-2
21,-3,-3
18,0,-3
13,0,0
8,5,1
4,5,3
-3,11,8
-16,14,15
-16,15,14
-9,17,9
0,12,5
14,7,0
28,6,-5
37,3,-4
46,2,-8
48,-1,-8
48,-5,-15
46,-10,-13
41,-11,-16
33,-12,-14
26,-17,-9
14,-18,-12
4,-17,-11
-9,-18,-11
-19,-12,-12
-31,-11,-9
-39,-7,-9
-48,-7,-5
-56,-3,-3
-59,0,-1
-61,2,0
-58,1,4
-60,4,3
-57,5,5
-47,0,5
-37,1,3
-26,0,7
-13,0,1
0,-5,1
7,-4,0
16,-6,2
22,-10,5
28,-9,7
30,-7,8
29,-6,7
27,-5,13
26,-4,14
26,0,16
27,1,13
32,2,14
30,3,12
30,6,12
30,5,10
28,3,7
29,3,6
25,-2,5
27,-7,-3
27,-9,-4
22,-11,-6
18,-10,-6
17,-14,-10
11,-14,-7
6,-11,-12
1,-11,-7
0,-10,-8
-6,-6,-8
-11,-6,-3
-9,1,-6
-11,3,-3
-14,2,-5
-12,3,-1
-15,8,-4
-16,9,-2
-14,9,0
-14,8,0
-11,5,-2
-8,1,-3
-4,0,-5
-2,-3,-8
0,-6,-5
0,-7,-7
-3,-13,-5
0,-12,-3
2,-11,-3
0,-14,-4
5,-13,-4
2,-13,-2
-1,-11,-2
-2,-12,1
-1,-9,-2
-3,-6,0
-5,-6,-1
-2,-3,0
3,-3,2
2,-2,-1
5,-4,0
8,-1,0
9,-4,0
13,-2,-3
11,-1,0
11,-6,0
8,-2,0
7,0,1
7,3,5
-1,5,7
-4,7,15
-8,12,15
-2,14,11
9,14,12
18,13,4
29,11,0
38,10,-3
42,5,-6
41,2,-10
42,-1,-12
35,-4,-14
24,-7,-19
12,-5,-21
1,-11,-21
-8,-10,-22
-18,-13,-18
-29,-12,-22
-37,-12,-24
-42,-11,-20
-48,-11,-20
-51,-9,-18
-51,-9,-15
-48,-10,-12
-47,-8,-12
-43,-9,-10
-39,-9,-6
-34,-5,-6
-32,-8,-1
-25,-9,0
-18,-6,0
-17,-5,0
-12,-3,-3
-10,-4,1
-9,-3,-1
-13,-4,0
-9,-3,2
-11,-1,0
-8,-4,7
-7,-4,7
-8,-3,6
-1,-3,6
0,-6,1
5,-4,1
11,-5,-2
14,-4,-3
19,-6,-4
25,-4,-9
26,-5,-11
33,-6,-12
38,-5,-15
38,-9,-20
36,-8,-21
32,-8,-22
24,-8,-19
23,-6,-24
15,-4,-25
7,-2,-26
0,-3,-25
-6,0,-23
-10,0,-23
-16,-2,-24
-22,3,-23
-26,1,-23
-29,3,-24
-28,1,-20
-29,1,-23
-27,0,-26
-27,1,-23
-28,-2,-25
-27,-4,-26
-24,-3,-24
-28,-6,-27
-26,-4,-27
-26,-5,-29
-28,-6,-28
-27,-10,-28
-26,-6,-27
-27,-6,-28
-28,-8,-26
-30,-7,-28
-29,-6,-24
-32,-8,-24
-29,-11,-23
-34,-9,-24
-32,-8,-21
-31,-11,-24
-30,-9,-22
-28,-9,-20
-27,-8,-21
-26,-9,-22
-20,-6,-22
-15,-9,-24
-14,-7,-25
-13,-7,-27
-6,-9,-27
-5,-6,-33
-4,-5,-30
-8,-5,-28
-11,-2,-30
-13,1,-29
-20,2,-25
-31,5,-20
-37,5,-18
-42,9,-10
-40,8,-12
-35,8,-11
-23,7,-12
-16,5,-15
-6,2,-15
3,1,-17
11,-1,-19
17,-5,-22
25,-11,-28
27,-7,-28
27,-8,-33
22,-9,-34
19,-7,-35
13,-5,-32
3,-5,-32
-4,-2,-32
-11,-2,-33
-21,-1,-32
-27,-1,-32
-31,-4,-26
-39,-4,-28
-45,-6,-24
-47,-10,-21
-50,-11,-19
-51,-12,-18
-53,-13,-14
-50,-14,-14
-46,-12,-12
-45,-12,-13
-42,-10,-12
-43,-10,-11
-34,-5,-11
-32,-6,-9
-32,-3,-11
-32,-3,-7
-26,-3,-8
-25,-5,-7
-24,-1,-6
-14,-1,-5
-11,0,-5
-7,0,-5
0,-4,-8
7,-4,-6
9,-3,-11
14,-5,-8
19,-9,-11
23,-6,-8
23,-11,-12
28,-13,-11
27,-14,-9
29,-12,-10
28,-12,-10
28,-12,-7
24,-9,-9
23,-10,-6
19,-10,-8
13,-4,-5
8,-6,-7
9,-2,-5
4,-3,-6
3,-2,-8
4,2,-3
2,3,-4
2,3,-5
3,3,-1
4,5,-4
5,2,-2
4,2,0
5,0,-6
9,3,-1
8,0,0
9,2,0
10,3,2
7,5,1
10,2,4
8,2,7
8,1,7
9,3,9
9,1,8
5,3,11
6,3,11
8,3,10
6,3,11
5,3,10
6,0,15
7,-2,16
6,-5,14
7,-4,13
7,-5,11
9,-7,9
11,-8,10
12,-8,10
14,-8,8
18,-11,8
16,-8,9
20,-8,8
25,-8,8
27,-5,4
29,-1,2
25,0,-1
22,0,5
16,3,5
13,6,8
7,8,8
0,10,19
0,7,19
4,10,20
11,11,19
21,12,15
29,11,10
42,11,4
49,7,0
57,5,-4
60,0,0
60,0,-6
55,-4,-9
47,-8,-7
33,-8,-5
22,-10,-7
9,-13,-3
-4,-15,-1
-15,-14,1
-24,-17,1
-32,-11,3
-36,-9,1
-37,-9,0
-40,-9,1
-36,-9,0
-33,-9,1
-28,-8,-1
-22,-7,0
-20,-8,-3
-11,-9,-4
-8,-7,-5
0,-9,-1
0,-6,0
-2,-6,1
-2,-3,2
-1,-7,9
-5,-6,11
-8,-6,13
-7,-8,14
-9,-8,17
-9,-9,18
-6,-12,21
-4,-12,16
3,-10,18
10,-13,12
18,-14,13
25,-13,9
28,-17,6
34,-14,7
40,-16,8
43,-16,2
44,-12,1
43,-12,-3
40,-10,-2
37,-11,0
32,-9,-3
24,-8,0
21,-7,0
11,-4,0
4,0,0
2,-1,0
-2,0,3
-7,3,1
-9,0,5
-10,2,5
-9,0,6
-9,5,3
-7,4,3
-7,4,5
-5,3,2
-2,4,2
-4,1,-2
-2,0,-1
-3,0,-3
-3,0,0
-1,-1,0
-2,-3,1
-1,-1,0
-2,-2,-1
-5,-2,4
-6,-4,2
-4,-5,5
-3,-4,5
-8,-7,6
-11,-4,10
-11,-6,6
-9,-7,11
-5,-5,9
-6,-5,9
-2,-5,13
0,-7,12
3,-9,12
5,-9,11
4,-8,13
6,-5,15
5,-7,14
8,-8,13
10,-9,12
11,-9,9
9,-10,10
13,-11,8
11,-9,5
16,-10,5
21,-10,-1
21,-4,0
20,-3,-2
17,2,-3
11,5,0
6,6,2
-1,11,6
-14,14,11
-23,12,16
-25,15,19
-18,18,19
-4,16,19
10,17,14
22,17,7
36,12,5
43,8,1
47,2,-2
52,-4,-6
45,-4,-11
40,-8,-12
31,-11,-9
16,-10,-13
0,-11,-18
-11,-10,-14
-25,-5,-14
-37,-3,-10
-47,0,-7
-56,5,-7
-60,5,-5
-64,5,-3
-64,8,-3
-61,7,0
-57,9,5
-50,5,5
-40,4,5
-34,2,8
-26,0,9
-18,-1,9
-11,-3,11
-7,-8,13
-1,-12,15
6,-15,17
9,-12,17
9,-14,19
10,-11,17
8,-12,22
10,-8,19
14,-9,19
16,-6,17
20,-5,17
28,-1,17
35,-2,16
38,-2,12
41,-3,12
45,-2,11
48,-5,9
48,-3,9
47,-2,6
43,-3,3
40,-2,4
33,-1,4
29,-2,4
25,3,1
21,3,5
15,7,1
10,7,2
6,9,0
5,12,1
0,14,1
-1,13,1
-1,12,0
-1,10,2
-1,11,3
0,9,1
1,7,1
3,6,1
0,7,0
3,6,0
3,2,0
3,1,0
5,0,5
6,0,3
6,0,4
7,0,4
7,-2,3
7,-1,7
4,-1,3
0,-1,5
3,2,6
2,0,7
-1,0,9
0,2,8
6,0,10
6,0,12
8,0,12
8,0,13
11,2,14
9,1,11
12,2,13
16,3,15
18,1,12
19,2,11
23,-2,13
28,-1,11
28,-2,11
30,1,5
33,4,3
37,4,2
35,8,2
25,13,1
23,13,2
18,18,7
10,19,11
0,19,16
-5,22,22
5,21,25
14,23,20
26,20,17
33,18,13
45,14,9
48,11,8
49,7,4
52,0,-1
45,-2,-2
41,-7,-4
32,-9,-10
22,-14,-10
11,-11,-12
2,-13,-13
-14,-8,-11
-20,-4,-9
-25,-2,-10
-37,2,-8
-40,9,-6
-43,11,2
-46,11,1
-47,12,5
-46,14,7
-41,13,9
-37,9,9
-31,7,8
-22,4,11
-13,2,13
-6,0,9
0,-6,12
1,-9,11
8,-9,11
8,-9,11
7,-10,14
7,-9,13
9,-7,16
8,-4,16
9,-3,18
14,0,15
20,2,18
24,2,14
26,3,13
28,4,13
32,1,12
33,0,12
36,3,10
35,0,7
34,1,4
34,1,6
34,-1,7
31,1,4
32,3,4
27,4,6
27,8,7
25,8,9
25,13,8
24,10,13
23,7,16
24,13,14
25,10,13
28,10,12
32,9,13
36,7,14
41,1,16
44,2,16
48,0,14
51,-4,12
51,-5,15
53,-6,13
51,-8,14
50,-10,9
49,-11,12
44,-9,9
39,-11,10
34,-8,12
28,-6,15
25,-6,16
24,-5,16
16,0,14
16,2,15
11,3,13
8,4,13
7,4,11
6,3,9
3,2,9
0,0,5
3,-1,7
6,-9,7
7,-11,6
5,-12,8
6,-15,3
3,-15,1
4,-11,-1
3,-11,-7
0,-9,-5
-8,-6,-6
-16,-2,-6
-19,-1,-5
-25,5,-1
-37,12,3
-43,12,10
-35,14,8
-25,15,11
-16,14,5
-4,14,4
7,12,1
13,9,-1
18,5,-6
25,1,-9
25,-2,-11
23,-7,-16
17,-11,-21
14,-12,-22
9,-13,-25
5,-15,-24
-5,-16,-25
-11,-13,-24
-19,-12,-21
-34,-9,-14
-41,-7,-12
-48,-5,-6
-52,-4,0
-57,0,2
-62,6,3
-57,7,3
-51,7,8
-44,8,10
-34,5,10
-24,3,11
-10,1,10
-1,-2,7
7,-7,6
12,-10,1
20,-13,4
23,-10,3
21,-15,2
21,-14,3
17,-14,7
17,-12,9
14,-11,8
16,-8,6
19,-5,8
18,-1,8
17,1,6
21,1,5
21,1,5
25,0,6
23,0,8
23,2,3
20,0,-2
18,-1,0
19,-2,-3
14,-4,-1
12,-2,-6
9,-1,-5
4,-1,-4
0,0,-6
-3,-1,-6
-7,3,-6
-9,6,-3
-11,4,-6
-11,6,-4
-7,5,-6
-3,3,-8
-2,4,-3
2,4,-5
7,4,-5
6,0,-6
4,1,-3
8,2,-6
10,2,0
7,2,-3
5,1,-4
3,3,-6
4,2,-3
4,1,-1
3,1,-2
-4,2,-3
-5,-2,0
-6,0,0
-10,-1,0
-8,-2,2
-13,-3,4
-15,-5,0
-14,-3,1
-9,-3,3
-9,-4,3
-5,-7,3
-4,-6,0
0,-5,0
2,-5,-1
6,-4,-4
10,-2,-11
15,0,-9
14,0,-7
10,2,-6
12,1,-6
11,3,-7
3,8,-1
-3,9,9
-8,15,12
-8,18,13
0,21,13
8,19,10
14,21,9
23,17,3
26,13,3
28,10,2
28,4,-3
25,2,-3
25,0,-9
18,-2,-13
13,-5,-15
7,-9,-16
1,-6,-18
-5,-9,-24
-10,-6,-25
-16,-8,-25
-19,-8,-24
-27,-7,-21
-31,-7,-21
-35,-6,-19
-39,-6,-16
-39,-3,-16
-44,-1,-9
-44,-1,-8
-43,-1,-7
-46,-1,0
-41,-3,3
-40,-3,5
-38,-2,3
-34,-2,2
-32,-1,4
-29,-1,5
-24,-5,2
-19,-5,1
-14,-7,1
-11,-4,3
-8,-7,3
-6,-6,4
-1,-6,0
8,-4,0
15,-6,-3
18,-4,-7
24,-4,-8
27,-4,-10
29,-2,-10
32,-1,-12
31,0,-15
30,0,-19
27,-3,-21
24,-1,-21
13,-3,-26
10,-5,-33
0,-9,-30
-11,-10,-30
-18,-13,-28
-29,-16,-26
-40,-18,-26
-46,-19,-25
-56,-24,-25
-63,-23,-20
-70,-23,-16
-74,-22,-9
-77,-22,-2
-78,-23,1
-75,-20,0
-74,-15,1
-67,-13,-2
-63,-10,-4
-60,-9,-8
-56,-6,-12
-51,-6,-13
-45,0,-13
-41,0,-14
-35,0,-15
-32,-1,-10
-29,-1,-8
-27,0,-8
-25,-2,-1
-21,0,-5
-16,-3,0
-11,-1,2
-9,-6,6
-7,-6,6
-6,-5,5
-4,-6,2
-1,-2,0
-2,-2,0
0,4,-1
-1,5,0
0,2,0
4,0,3
6,0,4
9,-1,0
14,0,2
13,2,6
8,6,4
8,8,4
6,8,5
2,8,10
-1,8,13
-8,10,18
-7,11,19
-6,14,16
1,9,12
12,8,13
21,10,7
31,8,3
41,9,1
50,9,-2
53,11,-7
54,10,-7
53,8,-11
49,6,-11
40,7,-12
32,8,-11
27,9,-4
16,14,-2
7,13,0
-1,15,1
-6,14,1
-12,17,-4
-16,14,-8
-15,10,-10
-17,7,-15
-19,3,-19
-19,-4,-19
-17,-8,-18
-17,-9,-18
-15,-10,-21
-11,-8,-19
-12,-3,-17
-10,-1,-17
-9,-1,-14
-8,1,-9
-4,0,-6
-1,-1,-3
-2,0,1
-2,-2,5
-2,-1,6
0,-3,8
1,-4,7
5,-3,4
7,-6,3
15,-7,4
21,-4,1
26,-6,2
30,-7,0
35,-8,0
38,-6,-4
45,-7,-3
45,-9,-6
45,-7,-5
50,-8,-6
47,-7,-11
45,-10,-10
42,-7,-11
36,-5,-10
33,-4,-9
24,1,-10
21,4,-9
15,4,-9
13,5,-7
7,6,-6
3,5,-7
1,6,-7
0,8,-9
-4,7,-10
-4,5,-9
-4,4,-8
-7,0,-9
-10,2,-6
-10,0,-6
-9,2,-4
-6,6,-5
-7,7,-6
-8,9,-5
-6,9,-6
-6,10,-4
-8,9,-4
-9,9,-1
-11,8,-4
-11,11,0
-9,8,0
-10,10,3
-9,11,4
-10,9,7
-4,10,6
-2,12,4
2,10,0
5,8,0
9,7,2
13,9,1
12,6,0
14,3,3
18,0,8
17,-2,12
20,0,12
17,0,14
22,0,17
21,5,15
21,3,14
16,5,13
7,7,15
1,6,16
-3,8,14
-7,5,15
-16,4,21
-21,6,22
-15,6,18
-13,2,14
-2,6,12
8,9,7
20,6,6
31,4,1
44,2,5
45,-1,5
56,-6,6
55,-12,7
52,-18,8
46,-20,6
38,-22,8
28,-21,6
18,-21,6
7,-23,7
0,-20,6
-11,-17,3
-19,-14,4
-26,-14,0
-31,-12,1
-32,-9,0
-34,-10,1
-33,-5,1
-31,-7,5
-28,0,8
-22,-1,3
-19,1,5
-16,5,4
-13,4,7
-12,2,6
-10,1,7
-9,-1,5
-4,-6,6
-2,-6,9
-3,-11,11
-2,-11,12
-3,-14,12
0,-17,15
5,-14,15
8,-13,13
14,-14,16
21,-10,18
23,-10,16
29,-8,17
32,-6,17
35,-7,12
39,-3,11
36,-4,12
38,-4,10
34,-5,7
30,-8,7
25,-9,5
21,-7,4
14,-9,4
7,-5,1
0,-6,1
0,-4,0
-6,-3,4
-6,-1,3
-11,0,1
-12,1,0
-14,0,2
-13,0,6
-9,2,5
-9,1,6
-5,1,6
-1,2,6
-1,2,7
1,2,6
2,2,5
6,0,3
3,3,0
9,1,4
7,-2,3
6,-1,4
7,-4,3
4,-3,6
4,-5,7
7,-6,7
6,-3,6
4,-5,8
0,0,9
0,-1,6
0,-3,8
-3,-2,9
-1,-2,8
-1,-3,10
-3,-4,8
-2,-5,11
-1,-6,9
-4,-8,8
-4,-8,6
-5,-10,5
0,-12,6
0,-7,4
2,-8,0
4,-10,6
9,-5,-2
9,-3,0
12,-4,0
21,-6,0
21,1,-3
22,4,-6
18,7,-1
14,10,-6
10,12,-1
-1,13,5
-12,13,13
-20,14,17
-21,14,19
-15,13,16
-5,15,10
8,10,7
19,9,6
30,5,0
39,5,-1
43,-4,-2
45,-10,-3
41,-13,-8
33,-15,-8
21,-17,-11
12,-18,-14
1,-16,-14
-13,-15,-12
-27,-11,-14
-35,-8,-14
-45,-3,-14
-51,3,-11
-55,4,-9
-58,9,-8
-57,6,-7
-56,9,-6
-50,9,0
-44,5,3
-36,7,5
-29,7,8
-20,2,10
-11,0,11
-6,-4,11
0,-9,16
2,-12,15
2,-14,18
0,-13,14
2,-13,13
0,-10,14
0,-10,15
0,-12,14
0,-11,16
1,-10,16
6,-7,14
10,-6,14
16,-4,14
21,0,14
28,-2,14
35,-2,13
41,2,12
46,0,13
47,1,12
50,1,11
51,3,9
49,2,9
47,2,7
44,5,8
40,3,9
37,3,7
32,4,4
25,7,4
24,8,4
21,8,-1
19,11,2
16,10,5
15,9,0
14,11,1
13,9,1
13,12,0
11,8,4
12,7,2
7,8,3
6,6,0
3,4,0
0,6,1
-3,3,0
-3,6,-1
-6,5,-1
-8,8,-1
-7,3,0
-6,7,0
-11,5,-1
-11,5,3
-9,5,3
-10,8,1
-14,6,3
-12,8,5
-12,4,7
-11,3,6
-13,4,5
-10,1,5
-7,0,4
-4,0,5
0,1,4
3,-1,7
8,0,9
11,5,6
14,3,8
19,4,6
24,4,4
28,10,0
33,9,-2
26,16,-4
24,19,0
21,17,3
12,25,7
3,27,17
-5,29,22
-4,29,23
0,30,22
12,28,20
24,24,14
34,21,11
41,18,8
44,13,4
45,6,2
45,-5,-1
41,-11,-5
37,-13,-8
29,-16,-10
18,-14,-12
10,-17,-12
1,-12,-13
-8,-7,-13
-17,-6,-9
-26,3,-11
-29,8,-6
-37,9,-8
-40,14,-1
-43,14,-1
-42,16,3
-38,17,5
-38,19,9
-30,20,14
-21,16,9
-11,13,10
-7,6,12
1,5,11
5,-1,9
7,-5,8
9,-4,11
8,-9,9
10,-11,14
8,-10,13
6,-8,15
6,-7,11
10,-4,15
13,-3,11
15,-2,8
22,-5,10
26,-5,8
26,-5,5
27,-2,4
29,-4,3
30,-6,2
27,-6,-2
26,-7,-2
20,-4,0
15,-4,0
10,-4,-2
5,-3,-3
1,0,-1
0,3,-1
-3,6,0
-1,3,-1
-2,7,-2
1,8,-2
1,10,-5
4,10,-4
2,14,-8
7,13,-3
9,15,-4
8,17,-3
7,15,-3
8,15,-2
1,13,0
0,12,0
1,9,2
-2,4,0
-6,0,0
-8,-3,-1
-12,-3,2
-14,-5,-3
-15,-10,-2
-14,-10,-3
-13,-11,-3
-14,-11,-2
-12,-9,-3
-9,-10,-2
-7,-7,-4
-3,-3,-8
0,-6,-4
2,-6,-2
5,-5,-1
4,-2,0
7,-6,2
7,-1,0
7,-4,2
6,-2,4
7,-5,4
12,-5,0
16,-2,-1
8,-2,-4
7,-3,-4
5,0,-4
2,-3,-4
-5,-2,0
-14,3,6
-22,1,11
-20,8,8
-9,8,8
-4,7,6
7,5,3
17,5,0
23,2,2
27,2,0
30,0,-2
32,-6,-3
25,-3,-4
20,-6,-6
17,-6,-4
11,-9,-9
7,-12,-6
1,-12,-12
-5,-12,-16
-10,-9,-16
-14,-8,-13
-20,-9,-12
-25,-9,-13
-28,-9,-11
-32,-5,-11
-29,-9,-8
-31,-8,-8
-34,-8,-5
-34,-4,-3
-32,-2,-3
-30,-1,2
-28,0,0
-20,1,2
-14,-1,4
-11,1,0
-5,-3,5
-2,-2,3
3,-5,2
4,-5,4
3,-6,6
1,-4,7
4,-4,7
7,-4,4
14,-7,5
15,-4,5
23,-4,5
26,-4,3
32,-4,2
30,-4,-1
33,-1,-1
33,-2,-2
36,0,-9
38,-1,-8
37,-2,-9
31,-5,-11
29,-7,-12
23,-8,-15
15,-6,-14
12,-3,-12
5,-2,-11
0,-3,-15
-1,0,-13
-4,-1,-8
-8,0,-10
-10,-2,-10
-15,0,-14
-14,2,-9
-18,4,-10
-20,3,-10
-17,2,-11
-18,3,-12
-17,0,-8
-18,0,-9
-18,-5,-11
-18,-5,-13
-18,-6,-13
-14,-9,-12
-14,-8,-12
-17,-10,-13
-18,-11,-14
-17,-12,-14
-19,-13,-8
-17,-15,-15
-18,-11,-12
-19,-10,-14
-16,-10,-15
-16,-10,-14
-14,-10,-11
-11,-8,-13
-10,-9,-12
-7,-8,-12
-4,-9,-10
-5,-8,-12
-1,-10,-6
2,-8,-11
6,-6,-14
8,-3,-15
5,0,-14
2,0,-14
0,2,-13
-2,2,-9
-11,9,-4
-21,10,2
-24,10,5
-25,12,8
-16,12,8
-11,14,3
-1,12,0
9,13,-1
16,11,-6
25,7,-7
33,3,-9
34,1,-13
33,-1,-13
29,-1,-15
22,-2,-13
19,-5,-11
7,-5,-13
3,-3,-13
-6,-6,-7
-14,-2,-8
-19,-4,-7
-26,-3,-6
-32,-3,-5
-35,-2,-4
-35,-6,-5
-39,-7,-7
-40,-6,-5
-38,-9,-3
-38,-9,-5
-37,-8,-8
-33,-11,-6
-28,-11,-4
-23,-8,-4
-21,-8,-4
-15,-7,-2
-12,-5,-4
-9,-5,0
-5,-4,-3
-4,0,-3
-1,1,0
-3,3,-1
0,3,1
5,4,2
4,1,0
6,0,4
12,4,1
16,1,3
19,0,-1
23,0,1
26,-2,0
31,-3,0
31,-4,-4
34,-4,-4
31,-5,-3
30,-5,-1
27,-6,-5
26,-4,-6
25,-6,-5
18,-6,-2
14,-3,-1
10,-2,-2
8,0,-1
3,0,-1
1,1,0
-1,1,-4
2,0,0
0,3,0
0,3,0
0,3,0
2,5,-1
-1,6,1
2,5,0
3,5,0
2,6,2
3,6,0
4,4,0
0,4,0
1,2,0
3,0,0
-1,2,1
1,4,0
-1,2,3
-1,3,4
0,3,4
-2,-1,1
0,-2,4
-1,-3,3
0,-4,2
0,-1,1
-1,-5,3
-1,-6,-1
-2,-3,0
0,-2,0
2,-5,1
2,-4,1
5,-9,-1
7,-9,-1
11,-8,-6
14,-6,-8
10,0,-8
8,3,-3
3,6,-4
0,9,0
-6,9,0
-15,14,4
-18,14,6
-22,12,10
-20,13,8
-13,11,6
-1,13,4
11,14,-3
24,12,0
39,13,-7
45,8,-11
55,3,-9
60,0,-13
57,-2,-11
51,-2,-10
41,-4,-14
30,-2,-8
14,-6,-9
3,-7,-3
-11,-7,-6
-23,-10,-1
-34,-4,1
-41,-3,3
-43,0,0
-44,8,2
-46,18,-1
-45,30,3
-38,46,3
-32,55,8
-23,71,10
-13,81,13
-4,89,20
1,92,22
11,95,28
14,93,27
17,87,31
21,73,40
23,67,39
25,51,40
24,41,41
26,31,43
22,21,42
20,7,38
22,-4,35
26,-12,31
26,-19,24
31,-24,20
33,-29,10
34,-30,9
38,-33,2
40,-37,-1
42,-38,-5
44,-40,-7
40,-40,-7
37,-37,-9
36,-36,-8
32,-34,-5
30,-34,-3
21,-30,-5
18,-32,-2
16,-29,0
9,-30,2
3,-31,1
0,-28,1
-4,-25,-1
-5,-25,0
-9,-23,-1
-13,-21,0
-13,-20,-4
-12,-20,-4
-11,-16,-7
-12,-14,-10
-9,-15,-9
-9,-15,-10
-7,-15,-12
-6,-15,-7
-4,-18,-4
-2,-15,-2
-1,-16,-1
0,-14,0
-1,-12,0
-1,-9,0
-2,-10,4
-2,-9,3
-5,-7,1
-4,-10,4
-3,-14,4
-7,-14,1
-5,-14,5
-4,-10,6
-3,-9,5
-2,-8,6
-3,-3,8
-3,-8,10
0,-7,12
0,-8,14
0,-8,12
0,-8,15
3,-5,14
4,-6,16
5,-2,15
7,1,18
9,1,20
10,5,17
14,5,16
15,6,14
15,10,11
13,12,13
8,12,13
0,12,17
-6,9,15
-14,5,21
-28,5,29
-35,1,33
-36,0,35
-34,-2,33
-19,-5,29
-7,-3,24
9,-6,20
26,-8,13
38,-8,7
48,-15,5
52,-15,1
53,-15,-1
52,-20,-3
43,-18,-6
34,-22,-5
19,-19,-6
6,-19,-8
-7,-17,-7
-19,-14,-9
-27,-8,-11
-36,-8,-8
-42,-7,-4
-46,-4,-3
-44,-5,-3
-45,-6,0
-41,-2,0
-34,0,0
-26,0,1
-18,0,7
-9,2,9
-2,8,11
6,6,12
7,6,17
13,7,18
20,1,21
18,-2,24
17,-3,25
17,-3,26
17,-4,28
18,-7,26
16,-9,26
18,-7,28
23,-8,23
28,-8,19
30,-10,15
35,-9,14
38,-13,10
39,-13,7
39,-17,7
40,-14,6
40,-13,8
38,-12,3
33,-8,2
35,-3,4
29,4,2
26,11,2
23,15,8
19,18,8
16,21,9
13,28,8
8,30,9
7,30,7
2,26,8
4,20,10
1,16,7
2,7,5
0,3,7
0,-3,3
5,-3,0
1,0,0
2,0,-2
-1,1,1
0,1,1
1,0,0
2,0,1
-2,1,-1
-1,7,1
-3,8,1
-4,12,4
-2,14,4
0,13,5
-3,12,8
-1,14,9
0,14,12
0,17,10
-1,19,12
-1,22,13
-1,24,16
0,23,17
0,28,17
3,28,20
2,28,15
2,29,12
2,31,10
5,30,1
6,28,2
5,29,5
0,28,11
2,24,16
4,23,23
4,25,24
10,26,26
15,27,26
19,35,22
15,39,19
13,43,9
10,46,4
5,50,4
-1,57,2
-13,62,0
-13,58,-4
-10,57,-7
-1,55,-14
3,52,-16
7,44,-14
11,36,-11
12,28,-7
13,18,-7
12,9,-5
9,-2,-4
3,-8,-8
-3,-12,-10
-8,-18,-7
-16,-17,-13
-24,-18,-11
-30,-16,-12
-36,-5,-7
-38,-2,-6
-44,9,-8
-45,15,-5
-44,24,-7
-44,26,-5
-39,30,-1
-36,36,0
-27,37,6
-21,36,6
-18,40,8
-8,44,8
-3,44,9
4,41,11
8,40,12
14,40,15
14,44,16
19,47,19
16,59,19
14,65,17
13,65,15
13,64,9
13,70,11
16,84,9
17,91,11
19,92,13
21,100,10
27,107,10
29,109,7
27,110,4
27,111,-1
24,108,-3
20,92,-2
21,82,0
17,98,-3
17,104,-2
13,105,-4
5,112,-6
3,111,-6
0,110,-6
-3,105,-2
-5,102,-7
-8,99,-5
-9,100,-5
-12,95,-2
-11,92,0
-8,89,1
-10,85,-1
-6,83,0
-3,81,0
-3,78,1
-2,77,3
0,71,0
0,70,0
0,64,-3
-1,62,-2
-5,62,-3
-7,61,-4
-7,60,-4
-10,60,-7
-10,63,-7
-13,63,-5
-11,67,-9
-11,69,-7
-13,76,-7
-14,80,-2
-14,82,-3
-16,93,-4
-15,100,-4
-13,108,-4
-7,119,-7
-5,135,-9
-4,148,-10
0,158,-10
1,173,-13
4,182,-15
5,195,-16
7,205,-17
13,217,-20
9,225,-25
1,235,-20
-3,241,-18
-9,244,-12
-22,242,-8
-38,240,-2
-51,232,5
-53,216,9
-52,178,11
-46,132,11
-42,123,6
-40,112,3
-37,95,0
-32,69,-4
-36,62,-4
-36,15,-8
-37,-15,-10
-39,-60,-15
-43,-44,-13
-43,-54,-15
-44,-30,-19
-45,-36,-16
-44,-32,-17
-45,-27,-14
-46,-18,-11
-47,-10,-8
-50,-8,-6
-45,17,-3
-43,23,2
-38,25,1
-35,26,5
-29,29,2
-22,32,3
-16,34,-1
-5,43,-4
2,50,-12
9,59,-19
21,73,-28
34,95,-38
51,115,-49
71,132,-61
88,148,-77
106,167,-89
126,189,-101
142,210,-118
158,224,-139
174,225,-156
183,226,-174
191,220,-179
192,207,-189
187,195,-194
180,191,-195
170,191,-190
152,190,-187
129,185,-176
100,181,-158
72,175,-142
42,171,-124
12,166,-104
-20,159,-87
-47,152,-72
-69,144,-57
-87,136,-49
-103,128,-46
-115,121,-46
-123,115,-47
-133,111,-57
-132,104,-64
-132,97,-72
-133,91,-77
-133,81,-82
-133,79,-89
-135,79,-87
-134,77,-92
-135,73,-94
-134,70,-92
-134,64,-89
-134,62,-88
-130,58,-83
-128,54,-78
-119,45,-71
-113,39,-64
-109,31,-54
-99,30,-47
-90,28,-43
-75,26,-33
-62,22,-29
-50,18,-28
-41,15,-20
-29,11,-15
-19,7,-14
-12,0,-9
-8,-7,-10
0,-18,-6
0,-30,-3
2,-41,-3
3,-49,-2
1,-60,-5
3,-72,-6
0,-74,-4
0,-68,-3
-2,-62,3
-3,-54,5
-6,-50,12
-13,-44,19
-15,-34,21
-5,-29,23
7,-28,23
21,-26,19
33,-29,16
41,-35,13
48,-42,16
51,-48,23
48,-51,29
45,-63,32
43,-71,42
39,-79,45
41,-86,50
41,-98,55
41,-102,58
44,-111,59
47,-119,58
43,-124,58
43,-137,62
41,-144,62
42,-156,64
36,-164,62
34,-175,63
34,-183,63
33,-187,65
31,-186,65
39,-183,64
42,-182,67
49,-180,67
54,-176,67
58,-179,65
64,-181,67
68,-188,68
72,-199,74
80,-213,79
85,-223,76
93,-238,84
100,-246,87
110,-243,86
120,-240,84
129,-253,83
136,-271,84
142,-278,89
144,-285,94
147,-287,98
149,-289,95
146,-294,99
144,-292,97
139,-298,103
132,-299,102
122,-298,100
109,-290,96
97,-286,95
84,-275,90
73,-267,85
66,-254,78
57,-248,75
53,-236,66
53,-227,62
53,-217,53
57,-211,45
60,-203,38
62,-201,33
64,-197,28
66,-191,23
67,-183,14
70,-177,10
66,-175,4
64,-176,-4
60,-175,-8
53,-178,-15
50,-178,-21
42,-183,-29
38,-184,-27
32,-180,-34
27,-180,-36
19,-173,-40
14,-167,-40
6,-159,-44
0,-156,-41
-1,-145,-44
-2,-138,-47
-5,-129,-47
-6,-117,-51
-1,-107,-50
0,-97,-48
4,-89,-48
4,-78,-46
6,-71,-44
10,-64,-40
9,-57,-30
8,-55,-22
7,-47,-16
3,-43,-9
-4,-39,6
-18,-31,15
-25,-30,23
-36,-26,27
-39,-26,33
-41,-24,32
-42,-23,37
-41,-25,33
-37,-27,31
-45,99,23
-29,75,17
-21,5,17
-13,-17,14
-9,-23,8
-1,-29,0
-3,-34,-4
0,-32,-8
0,-34,-11
-1,-34,-14
-2,-27,-15
-6,-25,-19
-10,-22,-15
-19,-20,-17
-25,-14,-12
-35,-17,-12
-42,-12,-12
-51,-12,-8
-57,-11,-10
-59,-11,-5
-67,-12,-2
-65,-16,0
-66,-20,5
-67,-17,12
-64,-17,17
-63,-16,18
-56,-18,22
-50,-18,24
-44,-16,26
-43,-19,29
-35,-16,29
-29,-19,36
-26,-15,33
-20,-14,35
-10,-14,37
-3,-15,36
0,-13,37
13,-13,34
16,-13,31
24,-12,33
25,-9,28
32,-14,26
35,-10,24
42,-11,24
45,-16,16
47,-15,17
49,-16,14
48,-17,12
44,-22,16
41,-21,14
40,-19,9
34,-17,7
30,-15,9
26,-11,8
25,-12,6
17,-11,4
11,-7,6
12,-5,3
6,-1,3
7,-3,6
4,0,1
0,0,4
-1,2,0
-3,3,3
-5,5,4
-7,5,3
-7,4,1
-8,4,1
-8,1,3
-6,1,2
-9,0,3
-9,0,2
-9,-2,2
-7,-1,0
-5,-3,3
-5,-5,0
-5,-5,-1
-3,-5,-1
-1,-7,1
-1,-6,1
0,-7,-2
3,-6,-4
7,-6,0
9,-3,0
5,-2,1
4,2,5
4,7,6
0,15,12
-7,18,19
-4,16,21
-6,24,20
4,21,23
9,24,26
15,28,22
26,26,25
34,22,23
45,24,23
52,20,19
56,17,16
58,14,12
58,12,7
55,9,5
46,3,0
37,0,0
26,-2,-3
13,-5,-2
4,-2,-7
-7,-5,-9
-20,-4,-8
-29,-3,-12
-39,-3,-10
-44,-5,-10
-46,-3,-7
-52,-4,-9
-48,-4,-9
-47,-5,-11
-46,0,-10
-41,0,-6
-41,4,-4
-37,4,-3
-33,0,3
-32,7,0
-29,7,5
-24,7,10
-23,5,10
-22,5,12
-17,3,16
-12,3,18
-8,4,11
0,5,14
7,3,15
13,6,10
21,8,8
28,7,11
35,7,7
44,7,6
51,7,2
55,9,1
56,6,0
59,2,0
59,0,0
58,-3,0
55,-8,0
49,-10,1
43,-13,1
39,-17,-1
32,-18,0
27,-21,1
21,-25,1
15,-26,-1
12,-28,-2
7,-30,-2
4,-26,-5
1,-24,-6
-4,-23,-8
-3,-16,-11
-9,-14,-9
-8,-8,-11
-14,-4,-8
-16,-3,-5
-16,0,-4
-17,1,-3
-17,2,0
-12,0,0
-12,-1,3
-11,-3,3
-12,0,2
-10,-3,3
-12,-5,1
-9,-7,3
-9,-6,2
-7,-7,1
-10,-11,-2
-10,-9,-1
-8,-12,1
-6,-11,-1
-1,-10,-3
1,-11,-3
4,-6,-6
5,-8,-5
3,-4,0
2,-5,0
3,-1,5
-3,1,13
-9,5,14
-11,11,19
-8,13,20
1,14,20
10,11,17
20,11,16
34,8,16
44,5,13
54,0,12
60,-1,7
60,-7,5
56,-13,4
48,-15,-1
40,-19,0
24,-21,-6
12,-22,-11
0,-21,-12
-14,-22,-11
-25,-19,-11
-38,-14,-13
-45,-14,-13
-54,-9,-14
-57,-7,-15
-61,-2,-13
-58,-1,-15
-57,4,-13
-53,3,-8
-45,2,-8
-43,3,1
-38,-2,2
-29,-3,5
-24,-7,8
-20,-10,9
-17,-15,12
-14,-17,14
-14,-17,16
-14,-23,18
-13,-25,19
-10,-26,16
-11,-28,15
-5,-33,12
-1,-35,9
1,-38,6
6,-39,2
9,-44,-3
14,-42,-4
22,-43,-6
19,-35,-10
22,-34,-14
23,-32,-14
27,-25,-16
25,-22,-13
23,-14,-15
23,-12,-12
17,-7,-11
18,-4,-11
14,-1,-10
10,1,-11
6,6,-8
4,7,-7
1,8,-7
1,10,-3
0,8,-3
-2,9,-2
-3,7,-3
-5,8,-2
-6,6,-3
-4,6,-3
-3,3,-3
-2,8,-2
-3,2,-6
-2,5,-4
-2,5,-4
-3,3,-4
0,2,-5
-1,0,-4
0,-2,-4
-1,-4,-4
1,-3,-2
0,0,-2
1,-1,0
5,-1,2
2,2,3
5,-1,4
8,3,5
8,1,5
13,-3,8
11,-2,7
13,-6,12
14,-6,9
16,-9,9
19,-8,9
23,-13,4
25,-11,1
23,-9,3
22,-13,1
21,-13,1
15,-14,3
6,-15,10
0,-20,14
-5,-17,18
-3,-23,17
8,-23,15
17,-21,9
30,-24,10
45,-23,5
56,-21,4
60,-22,0
63,-19,-1
60,-21,-7
57,-19,-9
50,-16,-11
37,-17,-14
27,-12,-13
9,-10,-15
-4,-5,-14
-15,-2,-14
-26,1,-13
-33,4,-10
-39,8,-7
-41,9,-2
-42,14,1
-43,11,7
-37,14,9
-29,14,12
-21,8,12
-18,9,13
-7,9,15
-3,4,20
2,3,18
8,3,18
13,1,20
15,0,16
18,-1,18
16,1,20
18,0,19
16,0,22
20,1,20
24,3,19
23,7,17
22,4,15
26,10,12
31,8,13
31,10,10
30,10,8
35,10,10
34,12,10
36,11,10
34,13,10
34,12,8
31,12,8
28,12,8
27,13,6
28,11,5
26,16,8
24,16,7
25,18,10
23,15,9
24,13,10
24,14,8
21,11,6
24,7,9
22,7,4
23,2,12
19,3,12
17,0,14
16,-3,17
10,-8,12
9,-8,14
7,-11,11
10,-12,12
9,-14,10
4,-16,12
2,-21,11
2,-20,12
3,-25,10
0,-29,13
-2,-29,14
0,-28,9
-1,-31,12
0,-30,11
5,-30,10
9,-31,10
8,-29,12
10,-27,10
11,-29,10
13,-30,9
17,-27,10
17,-24,5
22,-18,2
23,-16,2
19,-10,-1
15,-7,2
13,-1,8
9,3,6
-1,9,12
-10,10,16
-13,10,20
-12,8,13
-3,9,14
3,5,8
12,4,6
15,4,3
15,1,-2
13,0,-3
11,-2,-10
7,-5,-13
0,-8,-14
-9,-12,-18
-20,-12,-18
-34,-16,-25
-47,-14,-21
-59,-13,-20
-66,-10,-21
-73,-6,-20
-77,-3,-17
-81,2,-16
-80,6,-13
-77,9,-9
-72,12,-4
-68,12,2
-59,15,7
-51,16,10
-41,19,12
-29,21,14
-20,18,17
-11,18,18
-6,15,18
-1,12,19
4,8,16
7,6,16
11,5,13
11,3,10
11,1,10
10,0,10
13,2,7
16,-1,3
17,0,0
21,-2,0
21,0,-1
24,1,-2
26,0,-4
27,-1,-2
22,-1,-5
20,-2,-5
14,-2,-3
11,-3,-3
5,-4,-4
-1,-4,-6
-2,-6,-5
-9,-5,-7
-16,-6,-9
-19,-6,-9
-19,-4,-10
-20,-3,-8
-21,-3,-12
-19,-5,-13
-19,-6,-12
-13,-4,-16
-11,-4,-16
-8,-9,-16
-6,-5,-13
-4,-5,-14
-1,-7,-14
-8,-4,-14
-7,-3,-15
-10,-5,-13
-12,-3,-13
-15,1,-12
-21,3,-12
-16,2,-6
-20,3,-9
-22,5,-8
-24,6,-7
-26,5,-6
-25,3,-7
-21,3,-12
-21,6,-8
-16,4,-8
-9,5,-8
-8,3,-5
-6,2,-6
-5,1,-4
0,0,-5
2,0,-6
9,1,-8
12,3,-7
8,6,-8
7,5,-11
6,4,-11
1,9,-6
-7,14,0
-20,14,7
-25,12,9
-19,11,13
-14,14,12
-6,12,10
4,10,8
13,14,6
26,6,1
31,8,1
36,6,-2
39,6,-10
37,5,-12
37,5,-12
32,6,-15
25,1,-21
19,1,-22
12,0,-24
6,0,-26
2,2,-26
-5,2,-26
-11,4,-25
-19,7,-22
-23,9,-22
-29,15,-19
-34,11,-15
-34,11,-13
-35,10,-11
-36,9,-8
-39,5,-3
-32,5,-3
-32,6,-2
-25,0,1
-24,1,-1
-22,2,3
-17,4,7
-13,4,4
-9,9,7
-5,8,7
-4,12,12
-5,12,15
-2,13,15
-4,13,20
4,16,20
3,20,21
5,22,25
5,23,26
10,25,28
11,27,29
13,32,31
15,30,36
16,32,38
18,29,43
15,26,45
13,25,46
13,22,46
6,19,46
2,13,47
-1,11,47
-4,8,44
-10,2,40
-17,0,33
-20,-2,32
-25,-5,26
-28,-7,18
-30,-8,17
-34,-10,11
-32,-9,4
-31,-11,1
-29,-9,0
-27,-10,-1
-23,-11,-4
-20,-10,-4
-18,-10,-7
-17,-6,-7
-13,-10,-7
-12,-8,-5
-9,-11,-6
-7,-11,-4
-4,-13,-6
-1,-12,-4
-1,-10,-6
-1,-13,-6
0,-13,-3
0,-13,-4
-2,-10,-7
-3,-12,-6
2,-12,-6
1,-13,-6
5,-12,-8
2,-12,-5
6,-11,-10
9,-11,-8
15,-7,-8
10,-7,-6
7,-7,-4
8,-5,-4
7,-4,-4
0,-1,3
-10,0,8
-12,3,12
-13,3,14
-11,4,13
-2,7,9
7,10,15
17,10,9
28,9,5
37,10,4
44,8,-1
52,9,-4
49,9,-7
47,9,-8
41,10,-12
36,10,-11
31,6,-8
21,10,-6
10,8,-6
0,6,-3
-6,2,-5
-15,0,-1
-21,0,-1
-29,1,-2
-34,1,-1
-38,-1,0
-41,3,-1
-40,1,-1
-42,0,-3
-36,-3,-5
-34,2,-4
-26,0,-4
-24,0,-4
-21,3,-3
-21,2,-1
-17,4,0
-14,1,-3
-13,4,-2
-11,1,2
-12,2,2
-11,4,1
-6,2,4
-5,0,4
-1,1,2
3,1,5
6,0,4
11,0,1
16,-1,3
22,1,2
23,0,2
26,0,0
32,0,1
31,-1,-1
31,-2,0
29,-3,0
29,-3,1
26,-4,-1
28,-2,-1
21,-1,-4
19,-2,-5
15,-4,0
13,-1,-3
8,-1,-2
4,1,-2
3,1,-2
1,5,-2
0,4,-4
-2,3,-3
-2,6,-4
-1,5,-2
-4,6,-3
-4,7,-5
-3,4,-5
-4,3,-6
-7,6,-6
-7,4,-4
-6,1,0
-6,2,-1
-4,3,1
-5,3,-3
-6,3,0
-5,0,-2
-8,5,-2
-6,2,-2
-5,2,-3
-5,1,-1
-6,4,-2
-1,2,-2
0,2,-2
1,1,-1
2,2,-3
5,0,-5
6,0,-3
7,-3,-3
9,-3,0
13,-5,-5
15,-6,-4
20,-2,-4
15,0,-2
12,0,3
6,1,2
6,3,3
-2,13,10
-10,11,16
-13,18,17
-12,23,19
-2,32,17
6,35,14
20,39,9
33,43,9
47,40,9
57,38,8
66,34,6
70,30,4
69,22,6
64,19,6
59,9,4
44,0,7
31,-4,0
21,-13,4
7,-17,2
-6,-20,1
-17,-21,-2
-26,-23,-3
-34,-21,-2
-42,-19,-6
-44,-17,-10
-45,-19,-9
-46,-17,-11
-41,-14,-9
-39,-13,-7
-35,-14,-10
-28,-12,-6
-24,-10,-2
-19,-10,0
-19,-10,5
-14,-11,9
-13,-9,15
-10,-7,15
-8,-8,17
-8,-10,22
-8,-10,21
-9,-13,21
-8,-8,19
-2,-12,18
2,-12,19
7,-8,15
10,-9,8
16,-11,10
21,-10,7
23,-9,4
26,-8,5
25,-11,0
28,-9,1
25,-10,0
25,-8,-2
23,-8,0
16,-9,0
16,-8,-1
11,-6,-1
9,-5,0
7,-4,-2
4,-1,-1
0,0,-1
-1,1,-1
-2,4,-1
-2,4,-1
-5,4,-2
-8,5,-2
-6,0,0
-11,2,-4
-8,0,-1
-11,0,0
-9,-3,-4
-12,-3,-2
-10,-6,0
-13,-5,-1
-12,-4,-3
-11,-3,-4
-11,-4,-3
-10,-3,-2
-9,0,-1
-9,-1,-2
-9,-3,-1
-6,-3,0
-4,-2,0
-3,-6,0
-5,-2,4
-3,-7,4
-4,-5,7
0,-5,8
0,-5,8
1,-3,9
2,-8,9
0,-5,13
1,-4,8
6,-5,12
3,-6,7
7,-4,8
10,-7,8
10,-8,7
10,-6,6
14,-5,5
12,-5,4
20,-6,2
20,-1,0
26,2,0
25,7,-1
21,9,-4
19,12,-1
17,13,0
7,16,11
-1,18,13
-11,18,19
-10,16,20
-3,18,17
7,16,13
21,14,9
28,12,8
38,5,2
48,0,0
47,-7,-4
43,-13,-5
37,-18,-10
32,-22,-12
18,-24,-15
9,-22,-13
0,-18,-12
-13,-19,-16
-25,-15,-14
-38,-7,-14
-43,-2,-15
-47,2,-11
-52,9,-11
-55,11,-9
-53,12,-4
-50,13,1
-42,15,2
-37,14,7
-29,12,8
-17,6,12
-9,3,14
-1,0,17
2,-3,18
4,-4,20
10,-8,19
12,-8,20
14,-10,19
11,-6,20
10,-6,20
11,-4,21
12,-2,19
14,-3,17
18,1,19
22,1,17
26,2,13
31,4,13
34,5,13
36,3,9
38,3,11
40,2,11
37,2,6
40,2,8
36,4,3
34,5,5
31,8,6
24,8,7
22,10,3
21,11,3
13,14,2
11,14,3
11,13,0
6,19,2
6,16,0
6,15,1
5,16,-1
6,17,0
8,13,-2
6,12,-3
6,9,2
9,8,-3
8,7,-3
8,5,-4
8,3,-4
6,2,-3
5,5,-4
5,4,-1
3,5,-3
5,8,-1
3,10,-2
3,13,0
1,14,3
0,13,1
0,12,4
0,11,6
1,9,10
0,12,11
-1,13,13
-1,13,17
0,14,16
-2,14,16
0,9,17
2,6,14
5,6,16
7,8,15
11,4,13
12,8,13
16,9,13
20,4,10
20,1,11
23,2,5
27,9,1
30,7,-1
22,11,-1
16,14,-3
10,19,2
6,22,6
-5,26,12
-16,28,15
-17,28,19
-6,27,22
1,30,15
15,27,11
25,24,10
34,21,8
37,17,6
43,12,3
42,5,-2
45,-3,-2
39,-12,-6
31,-12,-10
22,-18,-12
15,-17,-13
3,-14,-12
-5,-16,-12
-17,-13,-14
-23,-6,-14
-29,-1,-10
-38,6,-7
-44,9,-6
-44,15,-4
-47,19,0
-44,17,0
-39,19,4
-32,17,4
-28,15,6
-19,12,7
-14,5,6
-6,4,8
-1,0,6
4,-2,7
1,-7,8
4,-7,8
3,-10,11
1,-8,10
1,-3,9
