74813
74760
74652
74541
74497
74455
74435
74437
74460
74460
74478
74478
74503
74494
74497
74475
74473
74477
74463
74481
74461
74465
74475
74456
74384
74280
74200
74135
74105
74116
74126
74105
74152
74176
74179
74179
74195
74191
74190
74192
74179
74183
74196
74191
74215
74220
74233
74173
74072
73981
73929
73911
73912
73940
73964
73988
74016
74028
74040
74065
74054
74082
74079
74094
74098
74121
74136
74139
74148
74169
74156
74093
74005
73911
73853
73830
73826
73854
73861
73908
73914
73923
73933
73951
73959
73971
73961
73998
74028
74026
74037
74058
74058
74067
74077
74023
73945
73875
73827
73813
73815
73856
73878
73893
73929
73980
74002
74036
74059
74049
74074
74090
74091
74116
74112
74148
74144
74149
74163
74134
74078
73981
73909
73900
73896
73923
73941
73972
74026
74053
74086
74110
74137
74130
74132
74155
74171
74172
74172
74186
74200
74221
74206
74201
74155
74059
73987
73961
73944
73952
73977
74010
74035
74055
74097
74122
74133
74146
74139
74146
74166
74161
74180
74183
74188
74213
74226
74200
74129
74036
73971
73917
73940
73935
73974
74012
74053
74094
74142
74172
74202
74245
74279
74320
74390
74407
74457
74471
74525
74546
74573
74525
74407
74352
74317
74299
74358
74400
74502
74616
74907
75421
76065
77240
77238
78294
78988
79403
79989
80065
80158
80216
80213
80067
79928
79823
79715
79726
79648
79584
79460
79291
78762
78242
77736
77459
77336
77188
77010
76860
76814
76830
76816
76815
76837
76924
76982
77088
77156
77159
77083
76977
76914
76893
76888
76883
76879
76893
76924
76953
76996
77010
77034
77068
77074
77110
77108
77159
77193
77245
77268
77334
77362
77421
77392
77313
77243
77242
77240
77275
77372
77545
77649
77668
77760
78086
78486
78941
79758
80271
80100
79894
79887
79863
80086
79861
79794
79816
80002
80215
80002
79378
79161
78804
78695
78644
78785
78920
79008
79149
79185
79300
79233
79293
79745
80256
79785
79432
79207
79548
79399
79175
79057
79040
78911
78936
78885
78872
78757
78769
78868
79117
79333
79406
79429
79414
79483
79522
79530
79548
79609
79659
79647
79761
79915
80039
80184
80182
80052
79737
79325
79431
79460
79459
79456
79358
79298
79240
79156
79047
78869
78684
78492
78328
78176
78051
77962
77878
77813
77822
77729
77683
77592
77588
77546
77492
77465
77490
77529
77616
77697
77776
77805
77848
77881
77927
77961
77990
78037
78043
78071
78115
78164
78195
78199
78227
78208
78194
78149
78127
78094
78075
78064
78079
78065
78051
78065
78070
78070
78074
78067
78080
78073
78092
78114
78103
78137
78328
78641
78791
78751
78782
78813
78807
78790
78780
78867
78960
79036
79100
79143
79133
79143
79147
79143
79140
79154
79153
79175
79202
79219
79246
79261
79259
79210
79168
79167
79178
79217
79254
79313
79336
79370
79402
79435
79489
79485
79515
79539
79570
79583
79582
79602
79615
79640
79631
79625
79600
79551
79544
79521
79542
79540
79565
79557
79582
79605
79616
79653
79659
79644
79677
79674
79677
79671
79701
79687
79692
79702
79747
79822
79870
79908
79948
79960
79970
79981
80025
80048
80100
80122
80180
80199
80204
80202
80206
80228
80224
80257
80276
80310
80335
80330
80325
80312
80304
80287
80281
80284
80290
80320
80317
80325
80317
80314
80323
80327
80326
80328
80321
80294
80304
80319
80317
80320
80322
80336
80306
80253
80253
80267
80279
80302
80306
80322
80315
80327
80342
80332
80333
80338
80338
80335
80351
80346
80340
80346
80338
80352
80354
80353
80342
80316
80303
80333
80309
80333
80340
80342
80346
80356
80359
80356
80344
80353
80368
80359
80361
80361
80366
80366
80362
80359
80364
80368
80365
80366
80375
80367
80353
80381
80385
80390
80385
80382
80376
80392
80363
80392
80381
80384
80377
80389
80387
80371
80370
80357
80352
80340
80346
80374
80388
80391
80395
80391
80384
80382
80376
80385
80400
80378
80379
80386
80391
80397
80388
80372
80376
80372
80363
80368
80357
80361
80360
80379
80387
80374
80375
80380
80358
80359
80382
80369
80382
80365
80360
80365
80345
80343
80352
80345
80365
80360
80362
80374
80357
80359
80362
80351
80374
80338
80338
80320
80343
80326
80337
80340
80338
80348
80353
80351
80359
80352
80357
80359
80351
80361
80351
80351
80363
80353
80363
80367
80377
80347
80345
80326
80307
80340
80321
80356
80372
80356
80348
80369
80363
80352
80347
80355
80356
80354
80350
80370
80373
80370
80358
80380
80362
80372
80349
80365
80333
80344
80350
80382
80368
80386
80384
80370
80364
80370
80389
80379
80371
80369
80360
80378
80379
80374
80372
80366
80380
80369
80358
80353
80376
80357
80347
80369
80383
80380
80379
80371
80380
80381
80375
80379
80365
80365
80378
80380
80376
80374
80375
80390
80385
80386
80372
80369
80343
80345
80345
80381
80378
80376
80380
80389
80382
80382
80358
80387
80368
80382
80378
80379
80374
80375
80369
80366
80374
80377
80380
80389
80382
80359
80372
80343
80353
80358
80351
80355
80348
80351
80364
80349
80368
80365
80358
80363
80359
80347
80374
80365
80364
80357
80346
80347
80348
80358
80355
80330
80307
80303
80270
80274
80313
80302
80316
80339
80358
80340
80339
80344
80352
80344
80335
80355
80343
80347
80341
80336
80335
80345
80334
80346
80321
80297
80275
80278
80279
80240
80236
80274
80286
80298
80290
80284
80306
80317
80306
80309
80291
80304
80322
80324
80313
80325
80322
80313
80310
80266
80219
80158
80177
80149
80177
80186
80190
80208
80196
80207
80217
80225
80235
80242
80268
80240
80256
80267
80274
80283
80278
80282
80290
80276
80236
80172
80159
80153
80149
80163
80178
80162
80186
80194
80240
80237
80233
80236
80253
80247
80238
80261
80254
80258
80273
80289
80302
80274
80277
80230
80189
80161
80165
80153
80182
80172
80205
80198
80217
80229
80214
80254
80256
80247
80257
80255
80261
80274
80285
80297
80290
80292
80301
80327
80297
80250
80236
80185
80198
80193
80211
80222
80244
80246
80277
80297
80288
80303
80304
80281
80288
80291
80293
80314
80307
80315
80314
80336
80351
80321
80314
80270
80254
80243
80260
80258
80293
80291
80313
80336
80342
80351
80350
80326
80337
80340
80347
80358
80354
80348
80351
80341
80350
80352
80349
80349
80337
80332
80314
80295
80296
80306
80310
80314
80321
80336
80340
80344
80344
80338
80356
80336
80341
80342
80328
80326
80328
80338
80337
80331
80319
80289
80239
80254
80224
80234
80211
80245
80229
80263
80275
80268
80284
80282
80282
80280
80269
80267
80278
80274
80275
80307
80288
80280
80255
80212
80192
80156
80142
80130
80140
80167
80170
80183
80206
80203
80217
80206
80205
80223
80220
80229
80212
80206
80239
80250
80241
80273
80249
80195
80174
80117
80115
80105
80102
80110
80120
80146
80147
80170
80179
80178
80164
80195
80191
80193
80221
80192
80190
80203
80215
80228
80239
80236
80202
80146
80120
80105
80099
80096
80110
80093
80111
80100
80120
80155
80143
80144
80153
80154
80176
80145
80162
80151
80162
80148
80182
80184
80199
80181
80142
80105
80073
80066
80080
80092
80114
80135
80130
80143
80182
80175
80183
80182
80184
80183
80202
80202
80218
80231
80207
80213
80229
80242
80221
80192
80163
80146
80112
80118
80126
80127
80134
80167
80185
80185
80190
80208
80213
80205
80189
80217
80219
80206
80215
80205
80234
80227
80228
80231
80230
80197
80145
80104
80095
80082
80088
80093
80087
80115
80125
80140
80172
80162
80151
80171
80156
80167
80184
80198
80196
80172
80196
80211
80222
80198
80141
80111
80075
80047
80072
80086
80077
80091
80091
80095
80112
80104
80117
80114
80121
80131
80129
80133
80169
80168
80164
80158
80180
80170
80116
80080
80058
80037
80027
80066
80042
80061
80080
80099
80127
80121
80138
80131
80126
80133
80143
80147
80138
80154
80159
80154
80172
80165
80182
80134
80065
80016
80030
80045
80037
80037
80064
80072
80082
80116
80122
80126
80148
80130
80096
80141
80140
80137
80133
80166
80142
80181
80156
80166
80142
80097
80080
80017
80025
80024
80019
80045
80046
80037
80081
80117
80119
80129
80108
80119
80145
80151
80175
80160
80188
80184
80184
80200
80212
80200
80196
80140
80102
80069
80093
80101
80109
80115
80132
80133
80168
80172
80160
80172
80201
80188
80195
80190
80190
80192
80179
80205
80213
80225
80222
80225
80218
80183
80152
80109
80096
80103
80088
80126
80145
80138
80172
80161
80179
80186
80168
80188
80165
80162
80184
80172
80189
80192
80192
80190
80189
80186
80112
80098
80034
79964
79879
79879
79935
79884
79825
79750
79678
79663
79586
79520
79507
79480
79496
79524
79523
79541
79530
79563
79578
79607
79622
79653
79664
79660
79690
79727
79736
79794
79835
79886
79897
79938
79984
80008
80005
80028
80021
80004
80021
80038
80063
80087
80124
80138
80184
80208
80177
80114
80080
80111
80121
80170
80271
80296
80392
80416
80433
80459
80458
80458
80460
80470
80464
80471
80475
80484
80471
80482
80468
80497
80494
80485
80486
80476
80474
80490
80478
80479
80485
80476
80481
80467
80491
80484
80472
80479
80488
80474
80471
80481
80468
80448
80461
80472
80471
80464
80457
80455
80466
80480
80472
80465
80455
80478
80453
80450
80454
80435
80382
80247
80091
79992
79946
79929
79845
79789
79738
79707
79604
79534
79491
79467
79397
79334
79277
79261
79251
79234
79225
79159
79137
79148
79169
79199
79228
79238
79225
79234
79238
79215
79211
79242
79218
79232
79241
79286
79297
79258
79262
79231
79237
79272
79303
79348
79376
79414
79416
79452
79478
79544
79619
79645
79658
79684
79679
79712
79763
79759
79811
79844
79839
79864
79890
79893
79890
79906
79924
79969
80024
80058
80116
80109
80130
80152
80208
80275
80275
80305
80294
80301
80341
80369
80382
80391
80382
80418
80432
80495
80498
80503
80487
80490
80477
80483
80486
80475
80488
80501
80500
80494
80504
80474
80491
80494
80469
80493
80490
80471
80480
80475
80474
80496
80485
80477
80485
80499
80485
80481
80492
80485
80489
80495
80513
80497
80498
80506
80479
80499
80501
80485
80480
80477
80475
80475
80489
80483
80484
80480
80474
80489
80488
80496
80496
80502
80490
80498
80503
80511
80502
80503
80501
80502
80505
80495
80499
80499
80499
80496
80477
80484
80477
80478
80476
80484
80468
80465
80478
80489
80502
80522
80521
80528
80510
80520
80512
80510
80509
80502
80486
80491
80480
80483
80461
80460
80453
80440
80436
80434
80420
80412
80403
80404
80390
80395
80420
80463
80475
80464
80461
80453
80418
80429
80422
80397
80392
80366
80357
80354
80346
80336
80321
80328
80313
80313
80302
80304
80301
80277
80284
80288
80309
80342
80377
80390
80405
80394
80356
80342
80326
80309
80294
80281
80243
80248
80229
80222
80210
80189
80190
80206
80225
80249
80292
80320
80333
80337
80315
80252
80069
79958
79879
79855
79802
79757
79799
79807
79822
79832
79848
79836
79855
79858
79853
79889
79882
79893
79895
79916
79907
79943
79952
79928
79875
79856
79879
79955
80080
80120
80137
80317
80359
80381
80386
80372
80379
80371
80366
80366
80348
80346
80307
80305
80282
80267
80261
80250
80253
80308
80358
80379
80376
80395
80382
80392
80403
80393
80400
80394
80401
80393
80389
80384
80393
80398
80400
80398
80391
80387
80380
80379
80370
80372
80378
80382
80413
80446
80445
80450
80430
80444
80413
80404
80404
80411
80402
80404
80402
80404
80409
80398
80408
80400
80388
80381
80383
80396
80386
80389
80391
80400
80407
80439
80458
80465
80456
80444
80448
80447
80447
80442
80419
80434
80427
80415
80409
80408
80413
80400
80401
80399
80395
80391
80375
80376
80367
80362
80389
80419
80445
80461
80463
80460
80458
80453
80438
80436
80420
80419
80412
80401
80388
80385
80363
80382
80389
80394
80391
80374
80382
80367
80373
80385
80427
80441
80483
80477
80479
80486
80470
80477
80475
80462
80465
80462
80453
80447
80441
80436
80434
80426
80428
80430
80414
80395
80389
80413
80417
80453
80476
80488
80486
80483
80473
80481
80482
80482
80483
80486
80474
80453
80464
80472
80468
80460
80467
80453
80451
80443
80442
80435
80429
80418
80427
80461
80493
80495
80477
80492
80488
80500
80477
80493
80494
80482
80482
80485
80470
80465
80481
80483
80465
80459
80460
80453
80453
80449
80438
80435
80438
80440
80474
80498
80487
80489
80483
80487
80469
80475
80470
80483
80476
80479
80483
80481
80468
80462
80459
80450
80469
80469
80460
80453
80459
80457
80458
80462
80477
80461
80470
80468
80466
80465
80452
80450
80452
80462
80457
80458
80445
80442
80450
80447
80449
80442
80435
80452
80444
80459
80435
80436
80418
80415
80426
80445
80439
80442
80462
80457
80445
80447
80461
80462
80454
80446
80444
80458
80441
80445
80438
80429
80425
80425
80398
80420
80408
80404
80396
80398
80413
80444
80455
80451
80448
80448
80444
80460
80445
80441
80440
80440
80441
80438
80438
80437
80432
80433
80425
80426
80428
80402
80411
80397
80398
80399
80414
80462
80450
80466
80448
80455
80456
80448
80459
80438
80440
80458
80447
80430
80443
80425
80430
80425
80432
80422
80421
80415
80408
80409
80399
80402
80431
80444
80447
80453
80462
80452
80469
80440
80466
80441
80447
80433
80451
80435
80430
80435
80435
80436
80424
80426
80413
80427
80419
80405
80414
80401
80402
80421
80434
80441
80453
80444
80458
80438
80446
80445
80446
80457
80427
80425
80442
80443
80443
80430
80435
80429
80421
80434
80434
80432
80424
80425
80442
80424
80426
80423
80437
80422
80430
80430
80415
80438
80439
80432
80425
80421
80418
80419
80404
80416
80407
80425
80418
80411
80412
80416
80408
80389
80382
80382
80368
80363
80357
80368
80400
80420
80429
80424
80431
80425
80401
80405
80401
80396
80351
80356
80341
80337
80327
80321
80320
80317
80281
80305
80296
80297
80281
80282
80267
80278
80322
80356
80377
80381
80390
80396
80381
80391
80381
80374
80349
80362
80354
80337
80338
80354
80342
80338
80334
80334
80328
80325
80323
80310
80290
80309
80347
80381
80392
80405
80409
80401
80394
80395
80398
80371
80355
80353
80344
80334
80344
80341
80329
80336
80330
80321
80319
80315
80309
80309
80302
80297
80320
80356
80397
80406
80412
80429
80421
80421
80410
80402
80388
80390
80377
80373
80360
80356
80364
80366
80364
80357
80354
80355
80345
80329
80327
80336
80312
80322
80325
80359
80403
80404
80405
80408
80407
80393
80384
80408
80418
80418
80417
80420
80416
80400
80397
80372
80367
80373
80350
80355
80358
80353
80354
80345
80342
80344
80340
80329
80323
80314
80327
80311
80313
80343
80366
80394
80408
80418
80387
80398
80403
80393
80392
80380
80363
80366
80347
80359
80352
80359
80352
80344
80343
80345
80344
80337
80327
80315
80317
80309
80304
80310
80347
80378
80381
80408
80400
80397
80395
80389
80355
80378
80354
80351
80341
80337
80338
80328
80336
80331
80324
80329
80329
80321
80320
80313
80309
80316
80311
80336
80359
80392
80374
80414
80404
80399
80380
80380
80389
80380
80367
80359
80326
80351
80355
80344
80343
80337
80342
80339
80321
80328
80329
80316
80313
80322
80357
80379
80394
80393
80394
80397
80415
80405
80383
80391
80390
80383
80377
80378
80369
80370
80369
80366
80350
80365
80359
80358
80360
80354
80354
80360
80378
80400
80404
80388
80419
80416
80406
80419
80397
80414
80408
80411
80400
80389
80389
80402
80407
80395
80386
80396
80387
80383
80381
80386
80353
80384
80386
80393
80411
80404
80404
80402
80413
80423
80404
80392
80409
80422
80405
80406
80414
80410
80398
80403
80412
80417
80402
80397
80386
80386
80388
80380
80379
80384
80385
80408
80407
80424
80416
80420
80405
80419
80408
80416
80404
80396
80408
80403
80400
80408
80413
80412
80405
80415
80407
80419
80401
80397
80398
80396
80400
80403
80376
80381
80411
80416
80421
80419
80402
80412
80425
80410
80420
80407
80412
80405
80401
80399
80391
80392
80384
80381
80371
80365
80364
80372
80361
80351
80354
80339
80349
80350
80351
80386
80404
80397
80416
80415
80412
80418
80380
80404
80385
80379
80368
80367
80361
80351
80350
80354
80347
80345
80333
80331
80329
80313
80311
80312
80301
80314
80337
80375
80390
80395
80398
80415
80404
80401
80387
80378
80360
80351
80325
80342
80344
80326
80330
80332
80330
80332
80324
80318
80312
80311
80305
80300
80330
80338
80390
80400
80403
80393
80395
80397
80393
80388
80396
80380
80377
80366
80350
80356
80356
80351
80347
80366
80353
80359
80366
80371
80362
80367
80368
80384
80399
80414
80419
80407
80433
80399
80413
80397
80418
80395
80404
80412
80410
80411
80401
80405
80408
80400
80416
80404
80394
80397
80382
80385
80396
80407
80412
80410
80418
80420
80422
80412
80413
80411
80420
80415
80414
80405
80405
80412
80399
80405
80408
80401
80407
80414
80413
80408
80408
80404
80416
80418
80402
80412
80395
80421
80410
80404
80411
80411
80415
80408
80405
80416
80404
80418
80413
80398
80408
80406
80404
80417
80421
80407
80402
80404
80415
80412
80405
80398
80398
80405
80423
80427
80406
80403
80405
80410
80414
80408
80413
80399
80415
80411
80399
80407
80420
80416
80416
80403
80399
80406
80398
80395
80407
80395
80390
80396
80372
80382
80375
80386
80390
80407
80400
80393
80411
80397
80390
80387
80398
80378
80391
80396
80385
80382
80376
80388
80385
80377
80370
80353
80358
80358
80352
80350
80340
80339
80338
80355
80383
80386
80390
80384
80391
80393
80398
80395
80389
80368
80369
80380
80375
80370
80379
80369
80369
80363
80361
80348
80351
80353
80353
80348
80348
80351
80369
80381
80383
80385
80391
80400
80387
80394
80397
80407
80373
80383
80392
80391
80386
80377
80374
80395
80391
80376
80380
80381
80382
80365
80369
80367
80372
80386
80399
80390
80411
80417
80408
80408
80390
80390
80403
80396
80399
80395
80383
80395
80397
80387
80413
80401
80396
80396
80379
80403
80381
80387
80386
80391
80396
80401
80407
80405
80405
80414
80418
80402
80400
80402
80415
80410
80406
80407
80404
80405
80393
80398
80393
80394
80402
80407
80401
80397
80386
80398
80392
80392
80390
80392
80411
80402
80400
80409
80398
80408
80423
80407
80411
80401
80405
80403
80404
80400
80404
80405
80415
80419
80399
80405
80400
80411
80393
80396
80394
80408
80398
80403
80402
80412
80407
80399
80402
80398
80401
80399
80405
80394
80395
80403
80398
80413
80407
80407
80407
80395
80405
80390
80394
80389
80395
80398
80386
80398
80392
80402
80386
80395
80392
80391
80400
80407
80405
80386
80406
80392
80404
80381
80398
80397
80408
80396
80401
80384
80390
80390
80400
80388
80390
80399
80386
80404
80392
80385
80387
80396
80390
80407
80403
80394
80391
80387
80386
80403
80398
80391
80390
80386
80402
80379
80396
80403
80396
80390
80393
80403
80397
80395
80386
80390
80373
80391
80387
80417
80397
80403
80409
80391
80392
80394
80399
80399
80389
80391
80389
80391
80404
80391
80401
80404
80396
80400
80397
80408
80395
80411
80415
80404
80397
80405
80387
80389
80409
80405
80386
80398
80401
80405
80403
80392
80404
80399
80398
80396
80399
80404
80396
80396
80395
80401
80398
80398
80392
80390
80400
80411
80402
80398
80396
80412
