75696
74116
74060
74075
74021
73939
73890
73845
73772
73685
73651
73602
73544
73485
73465
73433
73430
73393
73406
73380
73332
73257
73213
73132
73063
73014
72960
72917
72840
72781
72703
72620
72478
72388
72274
72099
36734
36739
36715
36594
36487
36461
36427
36413
36385
36374
72563
72581
72604
72629
72646
72673
72696
72698
72712
72743
72738
72750
72770
72776
72786
72832
72817
72856
72841
72878
72899
72915
72939
72965
72976
72987
73006
73026
73045
73072
73091
73068
73072
73048
73041
73038
73074
73081
73090
73103
73124
73119
73114
73140
73153
73155
73182
73196
73199
73209
73207
73248
73242
73264
73267
73291
73317
73315
73305
73331
73347
73364
73372
73394
73385
73400
73409
59891
59871
59847
59834
59850
59861
59873
59864
59843
59833
59820
59830
59801
59791
59783
59759
59753
59742
59734
59727
59726
59713
59705
59676
59680
59666
59660
59643
59631
59615
59601
59581
73635
73648
73663
73664
73676
73685
73544
73460
73482
73580
73640
73724
73762
73775
73859
73889
73972
58666
58599
58540
58475
58420
58390
58385
58376
58339
58277
58205
58093
58006
57987
57979
57904
57878
57863
57816
57793
57819
57844
57862
57906
57945
58013
58066
58106
58117
58161
58172
58208
58224
74877
74887
74900
74905
74911
74937
74939
74926
74938
74952
74973
74979
74996
75016
75043
75064
75067
58218
58165
58138
58104
58070
58058
58025
58050
58074
58087
58108
58106
58078
58088
58073
58066
58042
58024
57988
57999
57976
57972
57974
57958
57953
57966
57949
57975
57969
57972
57989
58004
75612
75654
75657
75661
75658
75676
75679
75688
75646
75594
75536
75511
75495
75503
75524
75544
75549
75560
75584
75603
75630
75655
75652
75643
75632
75640
75656
75676
75687
75708
75708
75721
75742
75729
75754
75753
75772
75775
75724
75710
75658
75617
75585
75586
75578
75603
75597
75619
75649
75670
75692
75723
75741
75730
75731
75735
75750
75744
75784
75803
75820
75820
75849
75865
75876
75889
75904
75918
75881
75807
75743
75720
75708
75705
75735
75755
75774
75814
75818
75877
75896
75920
75921
75923
75927
75942
75941
75946
75975
75987
75988
76017
76010
76029
76029
76040
76071
76072
76086
76056
75971
75910
75862
75843
75832
75846
75863
75882
75884
75913
75912
75911
75919
75904
75910
75900
75879
75879
75884
75894
75880
75909
75913
75932
75925
75928
75912
75930
75910
75886
75829
75751
75706
75708
75668
75663
75653
75638
75657
75661
75665
75649
75670
75666
75640
75617
75627
75616
75635
75613
75630
75644
75653
75670
75659
75692
75683
75690
75679
75631
75531
75486
75469
75477
75481
75510
75531
75574
75570
75595
75629
75622
75684
75698
75734
75747
75768
75779
75811
75830
75838
75851
75874
75905
75933
75947
75974
76000
76001
75959
75903
75850
75812
75801
75807
75808
75825
75861
75876
75884
75928
75940
75945
75938
75935
75953
75964
75972
75981
75999
76020
76029
76046
76062
76071
76093
76100
76120
76090
76029
75965
75908
75891
75866
75867
75907
75899
75924
75924
75930
75950
75941
75945
75949
75931
75944
75937
75962
75974
75963
75996
76006
76035
76037
76069
76074
76071
76058
75997
75937
75905
75915
75908
75922
75924
75972
75986
76007
76038
76076
76110
76100
76112
76150
76142
76150
76178
76178
76199
76230
76229
76250
76237
76275
76308
76329
76328
76304
76253
76181
76157
76144
76140
76162
76165
76194
76197
76235
76244
76269
76282
76276
76260
76279
76301
76293
76334
76360
76370
76359
76376
76378
76401
76422
76437
76433
76427
76493
76387
76193
75994
75760
75868
75759
75865
76024
76161
76174
76101
76016
75912
75873
75794
75758
75750
75771
75845
75913
75914
75888
75853
75769
75662
75657
75656
75740
75717
75779
75848
75892
75886
75907
75887
75915
75942
75939
75980
76002
76050
76062
76073
76080
76102
76117
76124
76122
76135
76127
76128
76126
76136
76126
76148
76155
76135
76177
76176
76193
76189
76183
76139
76081
76041
76038
76035
76036
76036
76053
76049
76078
76104
76118
76144
76146
76153
76166
76164
76172
76168
76166
76179
76210
76185
76211
76207
76222
76230
76272
76294
76304
76333
76348
76333
76312
76235
76185
76165
76185
76185
76187
76205
76235
76237
76274
76287
76278
76295
76286
76284
76293
76296
76311
76326
76315
76340
76363
76369
76363
76404
76457
76477
76441
76439
76417
76403
76391
76302
76231
76191
76161
76150
76140
76163
76173
76178
76224
76240
76257
76284
76355
76408
76432
76440
76277
76210
76208
76130
76171
76152
76094
76071
76103
76096
76093
76121
76208
76201
76193
76110
76051
76055
76075
76094
76131
76203
76236
76293
76300
76313
76339
76335
76375
76396
76413
76448
76479
76491
76513
76486
76506
76518
76544
76551
76555
76547
76575
76561
76532
76471
76425
76388
76365
76338
76343
76315
76310
76287
76305
76323
76327
76340
76324
76316
76314
76308
76316
76340
76380
76427
76439
76474
76513
76551
76554
76557
76559
76611
76623
76617
76611
76555
76526
76467
76469
76468
76488
76498
76539
76567
76600
76632
76655
76584
76681
76823
76402
76003
76097
75469
75479
75929
75942
75809
75971
76216
76425
76566
76564
76576
76563
76620
76466
76439
76344
76271
76225
76248
76275
76286
76281
76310
76320
76338
76350
76322
76351
76335
76338
76339
76356
76335
76273
76282
76231
76200
76152
76074
76042
76016
76091
76129
76184
76231
76256
76260
76301
76250
76267
76238
76232
76240
76269
76250
76279
76279
76287
76294
76253
76223
76215
76209
76224
76221
76230
76265
76321
76354
76356
76340
76343
76335
76330
76354
76355
76355
76375
76365
76372
76382
76398
76420
76417
76450
76455
76466
76490
76493
76486
76495
76518
76515
76471
76419
76321
76255
76224
76218
76243
76269
76263
76253
76286
76270
76295
76298
76292
76297
76281
76306
76334
76250
76172
76253
76288
76300
76154
76042
76001
76008
76021
75981
75906
75842
75798
75784
75728
75714
75705
75676
75653
75618
75555
75553
75531
75504
75489
75474
75461
75462
75480
75507
75532
75585
75558
75570
75587
75592
75602
75596
75562
75477
75445
75397
75395
75399
75407
75447
75494
75676
75783
75816
75823
75829
75825
75811
75760
75751
75701
75696
75721
75771
75835
75870
75916
75979
75994
76029
76051
76025
76002
76047
76204
76385
76482
76357
76188
76061
75879
75741
75581
75457
75400
75388
75397
75443
75529
75634
75710
75640
75611
75588
75580
75575
75543
75497
75492
75442
75362
75265
75176
75113
75040
74995
74944
74894
74824
74790
74746
74684
74576
74480
74344
74200
74048
73924
73796
73640
73494
73383
73250
73112
72952
72873
72770
72721
72725
72732
72809
72904
72971
73121
73187
73296
73478
73445
73534
73597
73703
73770
73842
73875
73942
74052
74122
74122
74114
74204
74211
74375
74448
74511
74553
74540
74464
74340
74279
74199
74203
74193
74212
74213
74218
74225
74175
74142
73915
74130
74285
74392
74457
74528
74602
74662
74724
74778
74838
74902
74944
74933
74967
75056
75120
75230
75298
75286
75280
75274
75264
75292
75307
75304
75288
75253
75234
75236
75223
75279
75350
75396
75426
75449
75489
75562
75586
75612
75651
75668
75677
75700
75708
75765
75879
76006
76075
76076
76040
75975
75942
75988
76009
76016
75987
75996
75986
75996
76015
76038
76053
76088
76129
76169
76210
76258
76325
76320
76368
76390
76410
76404
76430
76418
76431
76457
76448
76459
76475
76491
76517
76556
76583
76641
76658
76729
76681
76630
76506
76379
76288
76250
76230
76158
76163
76117
76013
76002
75991
76053
76137
76187
76176
76128
76070
76030
75984
75925
75909
75913
75886
75859
75742
75558
75388
75352
75371
75332
75398
75394
75323
75161
74980
74810
74816
74988
75171
75139
75043
75193
75086
75045
74893
72175
70706
70364
70731
70892
71591
72113
72542
73074
75745
75962
78762
78289
78002
78402
77506
77803
77431
77181
77438
77613
77793
77907
78030
78221
78436
78588
78679
78779
78767
78698
78658
78538
78333
75681
73953
74481
74319
72610
72082
71044
70555
70561
70799
71002
71239
71401
71566
71719
71905
72166
72472
72602
72643
72710
72776
72833
72888
72943
73005
72830
72938
73014
73053
73038
72992
72918
72874
72881
72891
72899
72933
72950
72984
73015
73052
73122
73133
73165
73177
73199
73238
73224
73264
73297
73131
73134
73172
73157
73210
73222
73219
73230
73229
73254
73235
73171
73069
72993
72944
72925
72905
72905
72917
72923
72921
72940
72954
72956
72995
72991
73002
72997
73012
73034
73038
73061
73052
73068
73071
73082
73093
73093
73092
73114
73132
73150
73178
73233
73247
73226
73159
73025
72936
72862
72873
72875
72882
72924
72930
72968
73014
73046
73097
73128
73119
73137
73123
73148
73131
73164
73191
73227
73237
73263
73248
73280
73293
73301
73311
73335
73339
73364
73406
73435
73437
73342
73235
73165
73106
73099
73058
73052
73071
73118
73104
73134
73166
73152
73178
73183
73161
73173
73159
73170
73185
73200
73199
73225
73225
73227
73254
73275
73283
73276
73320
73324
73342
73354
73316
73215
73126
73058
73017
72947
72943
72932
72924
72940
72963
72949
72973
72997
72990
72970
72961
72955
72951
72929
72916
72935
72917
72924
72915
72911
72927
72929
72918
72903
72895
72890
72914
72961
72953
72910
72827
72693
72604
72549
72530
72524
72516
72520
72534
72537
72534
72551
72545
72541
72531
72552
72561
72581
72603
72608
72635
72690
72685
72698
72705
72729
72741
72750
72763
72768
72787
72817
72858
72848
72903
72929
72977
73020
73025
73051
73089
73073
73097
73134
73134
73107
73014
72904
72813
72738
72747
72750
72757
72787
72788
72807
72837
72817
72847
72848
72854
72841
72870
72859
72867
72857
72880
72904
72953
72982
73006
73043
73051
73073
73078
73084
73124
73129
73178
73193
73230
73261
73291
73296
73289
73312
73324
73345
73366
73380
73330
73271
73151
73051
72979
72956
72924
72930
72943
72931
72928
72915
72950
72967
72972
72984
73011
73002
73002
73027
73017
73024
73039
73053
73060
73069
73081
73102
73125
73132
73148
73138
73186
73176
73213
73209
73208
73235
73244
73253
73257
73286
73291
73281
73226
73150
73035
72953
72886
72860
72813
72808
72803
72825
72818
72816
72817
72856
72850
72864
72855
72892
72953
72997
73045
73071
73106
73136
73156
73181
73217
73216
73252
73308
73332
73362
73396
73397
73422
73435
73432
73439
73443
73409
73322
73210
73085
73022
72988
72949
72939
72948
72936
72944
72973
72975
72970
72960
72935
72912
72887
72902
72900
72889
72906
72900
72909
72929
72924
72919
72931
72916
72924
72919
72929
72931
72943
72970
72957
72896
72781
72667
72575
72517
72479
72434
72388
72385
72351
72344
72343
72366
72371
72366
72343
72310
72292
72300
72305
72289
72324
72327
72322
72326
72352
72369
72384
72395
72403
72415
72431
72423
72413
72433
72448
72468
72477
72455
72364
72207
72120
72046
72011
71963
71931
71935
71934
71907
71927
71916
71955
71960
71969
71953
71935
71936
71954
71951
71976
71951
71969
71940
71958
71961
71960
71971
71988
72010
72026
72043
72073
72100
72115
72138
72171
72193
72201
72233
72255
72246
72305
72367
72435
72482
72427
72325
72165
72039
71947
71918
71852
71798
71768
71773
71760
71776
71797
71833
71882
71887
71919
71938
71927
71944
71983
71984
71990
72021
72011
72065
72079
72094
72148
72171
72202
72259
72297
72315
72384
72441
72469
72514
72553
72589
72631
72646
72680
72703
72727
72784
72807
72795
72731
72646
72532
72476
72453
72443
72414
72437
72457
72483
72495
72484
72533
72565
72574
72585
72584
72567
72563
72560
72573
72569
72572
72598
72616
72608
72625
72645
72669
72688
72715
72751
72767
72758
72786
72790
72822
72838
72845
72865
72871
72882
72877
72767
72654
72579
72520
72498
72492
72479
72493
72482
72506
72512
72521
72547
72550
72551
72556
72531
72515
72525
72547
72553
72564
72570
72582
72565
72571
72581
72616
72603
72630
72647
72679
72687
72715
72754
72751
72778
72769
72723
72581
72493
72424
72400
72376
72358
72362
72341
72358
72345
72368
72386
72429
72421
72425
72426
72426
72421
72421
72442
72435
72447
72457
72475
72495
72494
72519
72525
72550
72541
72566
72595
72598
72579
72633
72644
72659
72607
72500
72384
72287
72219
72190
72174
72171
72163
72158
72167
72191
72211
72215
72243
72284
72280
72273
72299
72272
72269
72284
72314
72318
72331
72355
72372
72415
72394
72434
72440
72473
72503
72508
72532
72573
72583
72614
72640
72668
72696
72713
72735
72762
72769
72812
72821
72855
72853
72795
72675
72548
72446
72396
72372
72364
72350
72350
72367
72367
72362
72407
72451
72483
72463
72466
72469
72465
72467
72485
72494
72499
72503
72529
72542
72570
72581
72615
72621
72645
72673
72693
72709
72725
72759
72788
72816
72840
72849
72888
72918
72939
72956
72982
72997
73064
73103
73133
73093
73000
72864
72796
72731
72693
72711
72713
72746
72723
72772
72756
72767
72782
72794
72798
72779
72786
72758
72771
72759
72763
72772
72795
72791
72810
72841
72835
72858
72876
72871
72866
72890
72920
72936
72954
72955
72972
73007
73003
73021
73036
73055
73047
73015
72930
72822
72741
72678
72636
72634
72638
72636
72663
72690
72698
72727
72745
72787
72772
72765
72754
72748
72754
72758
72763
72779
72807
72800
72812
72830
72849
72846
72871
72876
72880
72903
72925
72928
72948
72995
72990
72993
72967
72867
72753
72685
72632
72599
72588
72609
72620
72642
72640
72664
72680
72732
72730
72738
72726
72727
72726
72718
72747
72752
72759
72798
72793
72815
72842
72846
72850
72874
72880
72885
72925
72925
72944
72933
72873
72750
72655
72589
72574
72554
72552
72539
72562
72555
72562
72565
72582
72610
72590
72577
72550
72546
72529
72522
72520
72548
72572
72576
72568
72589
72590
72591
72641
72637
72655
72673
72665
72651
72659
72677
72683
72654
72538
72425
72333
72301
72283
72277
72276
72273
72263
72279
72286
72296
72333
72347
72361
72378
72377
72375
72370
72374
72409
72406
72429
72432
72452
72485
72510
72515
72539
72557
72573
72616
72643
72686
72682
72727
72747
72783
72802
72821
72830
72872
72882
72914
72922
72919
72948
73001
73011
72998
72908
72797
72646
72557
72508
72487
72472
72472
72476
72469
72485
72482
72520
72537
72548
72563
72576
72576
72587
72573
72579
72596
72610
72631
72651
72670
72696
72688
72706
72721
72758
72768
72789
72807
72830
72852
72874
72891
72921
72955
72980
72999
73014
73043
73044
73076
73089
73122
73144
73155
73098
72969
72868
72786
72746
72740
72735
72733
72735
72773
72766
72783
72793
72824
72838
72836
72863
72849
72853
72859
72847
72852
72862
72876
72885
72896
72911
72919
72929
72960
72963
72979
72990
73022
73029
73031
73035
73059
73097
73107
73122
73129
73130
73169
73171
73189
73179
73101
72985
72864
72824
72791
72772
72763
72777
72800
72798
72823
72825
72862
72876
72891
72887
72893
72862
72872
72872
72890
72913
72918
72950
72961
72986
72982
73017
73026
73044
73059
73088
73115
73141
73139
73165
73170
73192
73224
73239
73220
73163
73063
72967
72875
72839
72844
72855
72836
72872
72869
72880
72911
72918
72943
72957
72958
72952
72910
72813
72732
72682
72663
72673
72681
72709
72699
72716
72702
72718
72716
72726
72715
72722
72733
72757
72773
72779
72810
72838
72881
72850
72773
72665
72588
72537
72523
72519
72532
72568
72547
72588
72604
72625
72637
72684
72677
72656
72668
72644
72654
72645
72627
72613
72584
72588
72591
72620
72636
72665
72712
72729
72765
72785
72817
72831
72862
72889
72945
72956
72998
73029
73062
73087
73130
73132
73065
72966
72848
72788
72730
72730
72722
72729
72727
72737
72753
72753
72767
72818
72850
72846
72864
72865
72874
72863
72881
72875
72897
72902
72912
72932
72953
72972
72995
73016
73024
73043
73062
73098
73128
73156
73204
73231
73275
73325
73357
73387
73414
73418
73397
73350
73235
73104
73013
72932
72895
72873
72873
72849
72883
72877
72893
72897
72898
72933
72932
72931
72932
72900
72900
72911
72912
72922
72911
72944
72931
72959
72981
72993
73008
73021
73030
73050
73040
73072
73086
73107
73103
73112
73125
73140
73141
73137
73158
73109
73001
72865
72778
72727
72692
72674
72695
72687
72688
72704
72715
72757
72765
72788
72782
72784
72770
72755
72756
72757
72767
72781
72787
72801
72832
72845
72852
72876
72873
72881
72898
72919
72934
72953
72973
72976
72995
73028
73034
73039
73014
72907
72769
72673
72610
72568
72567
72551
72528
72564
72576
72579
72606
72654
72675
72699
72710
72682
72669
72691
72697
72697
72735
72740
72759
72785
72794
72802
72819
72843
72860
72883
72882
72919
72904
72951
72955
72971
72979
73008
73036
73043
73072
73059
72977
72833
72731
72654
72618
72625
72610
72600
72601
72624
72636
72659
72685
72714
72746
72748
72753
72744
72767
72757
72753
72779
72784
72837
72845
72861
72887
72904
72944
72969
72994
72999
73024
73054
73071
73100
73100
73151
73166
73203
73209
73233
73251
73260
73284
73313
73344
73341
73289
73180
73037
72961
72898
72850
72847
72846
72855
72858
72853
72886
72903
72945
72986
73014
73030
73053
73053
73060
73081
73084
73100
73103
73116
73133
73140
73155
73164
73150
73162
73206
73217
73227
73245
73246
73267
73298
73309
73322
73341
73357
73383
73412
73413
73418
73432
73449
73465
73472
73436
73318
73193
73092
73021
72978
72973
72945
72956
72969
72988
72992
73006
73036
73072
73073
73087
73066
73061
73055
73043
73055
73077
73098
73081
73107
73108
73117
73131
73143
73165
73177
73178
73181
73222
73215
73235
73256
73283
73296
73289
73317
73330
73288
73202
73085
72956
72898
72870
72846
72840
72831
72836
72849
72865
72889
72921
72959
72955
72958
72938
72930
72913
72916
72919
72918
72952
72939
72930
72935
72945
72946
72965
72965
72992
72994
72997
73031
73049
73047
73080
73084
73102
73112
73093
73011
72863
72742
72694
72637
72606
72588
72590
72576
72594
72591
72598
72636
72649
72668
72696
72681
72672
72683
72677
72685
72715
72707
72736
72752
72773
72787
72791
72817
72840
72825
72857
72879
72894
72919
72943
72965
72992
72995
73001
73045
73078
73098
73115
73099
73021
72892
72727
72629
72576
72545
72526
72513
72510
72515
72518
72516
72546
72576
72620
72607
72626
72608
72595
72603
72611
72625
72632
72665
72687
72687
72724
72700
72728
72761
72755
72793
72826
72841
72859
72878
72917
72937
72955
72991
72991
73008
73021
73073
73076
73073
72975
72840
72711
72617
72559
72525
72510
72511
72519
72538
72520
72539
72542
72572
72593
72621
72613
72607
72578
72581
72595
72582
72607
72632
72616
72645
72653
72673
72673
72698
72690
72716
72735
72774
72776
72784
72785
72824
72825
72847
72883
72893
72871
72797
72661
72559
72492
72463
72429
72422
72425
72439
72457
72474
72506
72538
72567
72569
72593
72579
72569
72563
72580
72586
72587
72626
72624
72641
72655
72697
72709
72742
72761
72762
72804
72803
72825
72853
72870
72892
72923
72939
72915
72836
72722
72587
72561
72521
72495
72496
72502
72534
72544
72555
72558
72605
72651
72666
72676
72669
72642
72654
72645
72671
72708
72716
72737
72726
72752
72779
72777
72799
72803
72836
72856
72898
72894
72917
72948
72970
72978
73012
73009
72953
72826
72705
72618
72567
72534
72537
72555
72560
72540
72559
72584
72605
72614
72635
72675
72659
72683
72680
72672
72688
72708
72704
72737
72778
72778
72786
72822
72843
72864
72888
72910
72916
72947
72964
72993
73007
73043
73068
73093
73110
73128
73143
73179
73182
73208
73202
73121
72972
72839
72748
72685
72653
72643
72629
72623
72637
72644
72661
72662
72683
72700
72716
72714
72730
72703
72721
72728
72737
72750
72762
72770
72783
72804
72834
72847
72857
72869
72910
72930
72949
72980
72983
73002
73038
73057
73075
73102
73113
73131
73139
73174
73191
73211
73224
73243
73269
73268
73228
73094
72966
72848
72777
72731
72699
72672
72682
72697
72695
72710
72714
72723
72776
72785
72792
72783
72783
72770
72759
72755
72774
72772
72775
72806
72827
72843
72865
72858
72886
72889
72900
72926
72942
72968
72971
72983
73005
73005
73042
73065
73089
73085
73093
73123
73126
73138
73115
73002
72882
72780
72688
72656
72641
72629
72656
72663
72673
72688
72712
72735
72764
72786
72785
72771
72753
72783
72782
72786
72771
72786
72829
72816
72859
72886
72893
72914
72924
72933
72950
72968
72982
73017
73011
73020
73042
73052
73060
73097
73087
73066
73007
72866
72716
72584
72525
72491
72468
72467
72494
72484
72492
72494
72520
72585
72599
72602
72624
72631
72626
72629
72626
72659
72654
72682
72693
72742
72745
72764
72800
72814
72846
72867
72852
72882
72910
72936
72940
72967
72991
73024
73046
73069
73104
73114
73081
72982
72847
72727
72653
72614
72612
72606
72621
72633
72628
72668
72698
72706
72754
72785
72800
72806
72795
72803
72820
72816
72831
72853
72860
72889
72887
72911
72925
72944
72962
72967
73000
73029
73047
73068
73075
73121
73142
73172
73173
73195
73210
73227
73245
73252
73188
73058
72935
72844
72790
72742
72753
72736
72756
72763
72758
72769
72799
72826
72856
72875
72886
72884
72887
72912
72908
72918
72941
72955
72980
72977
73005
73021
73057
73085
73128
73148
73142
73198
73215
73217
73264
73271
73296
73324
73332
73329
73358
73406
73416
73406
73385
73268
73152
73033
72977
72926
72910
72906
72916
72917
72926
72948
72957
72982
72987
73008
73005
73011
73024
73007
73006
73022
73044
73046
73055
73085
73084
73102
73116
73135
73136
73163
73167
73198
73184
73206
73228
73245
73279
73280
73295
73319
73336
73336
73302
73187
73066
72973
72920
72881
72873
72871
72890
72896
72920
72926
72963
72975
73007
73004
73030
73002
72995
73005
73014
73015
73024
73033
73064
73063
73089
73096
73113
73129
73137
73157
73174
73209
73208
73217
73245
73254
73279
73294
73298
73267
73145
73020
72915
72859
72841
72828
72817
72821
72836
72847
72855
72851
72886
72886
72912
72899
72888
72881
72873
72862
72880
72897
72899
72909
72931
72931
72942
72964
72979
72999
73021
73031
73042
73061
73073
73088
73102
73105
73153
73178
73217
73205
73144
73005
72849
72757
72719
72677
72679
72677
72675
72684
72687
72702
72724
72748
72773
72802
72797
72832
72821
72796
72793
72822
72835
72854
72862
72897
72903
72920
72915
72949
72962
72990
73002
73016
73027
73045
73068
73099
73109
73126
73161
73181
73183
73206
73214
73256
73276
73299
73285
73253
73087
72950
72840
72768
72723
72725
72695
72727
72726
72749
72748
72762
72794
72816
72848
72857
72864
72832
72844
72856
72853
72869
72871
72904
72903
72925
72935
72965
72987
72997
73026
73042
73055
73084
73116
73146
73156
73185
73220
73242
73249
73286
73307
73318
73334
73332
73368
73393
73368
73282
73150
73024
72926
72871
72838
72840
72844
72870
72883
72891
72905
72910
72950
72969
72978
72978
72983
72962
72962
72967
72984
72990
73004
73007
73031
73022
73048
73070
73084
73084
73112
73120
73117
73148
73196
73182
73220
73233
73245
73259
73270
73298
73300
73318
73291
73217
73072
72981
72883
72825
72794
72787
72757
72769
72755
72789
72790
72802
72809
72827
72812
72811
72811
72806
72830
72874
72916
72931
72965
72957
72967
72968
72957
72982
72962
72994
72975
72938
72887
72791
72731
72707
72691
72714
72714
72742
72765
72748
72661
72526
72408
72314
72272
72225
72090
72333
72641
72801
72678
72047
73372
76097
73215
70705
71891
71805
71660
72041
73143
74068
74506
74848
75274
75651
76017
76641
76786
76432
76142
76176
76126
76115
76150
76087
76015
75878
75787
75766
75636
75564
74687
73586
72815
72399
72107
72233
72879
73559
73946
74181
74409
74502
74677
74784
74865
74906
75005
74967
74962
74975
74998
75016
75054
75068
75108
75139
75179
75199
75259
75266
75290
75253
75209
75191
75201
75176
75142
75088
74964
74774
74567
74386
74304
74261
74208
74189
74085
73996
73868
73642
73456
73338
73219
73163
73155
73178
73164
73203
73340
73509
73902
73700
73629
73728
73708
73294
73195
73077
73036
73098
73204
73400
73623
73736
73855
73724
73512
73510
73556
73457
73531
73599
73699
74019
74120
71742
71661
72142
71913
71798
71764
71329
71030
70837
70756
70686
70599
70535
70571
70635
70667
70935
71136
71249
71303
71359
71452
71507
71531
71573
71641
71689
71731
71740
71739
71651
71605
71545
71339
71067
70797
70587
70543
70565
70589
70596
70608
70624
70619
70577
70617
70626
70628
70618
70637
70609
70619
70601
70658
70707
70612
70561
70477
70439
70402
70353
70326
70364
70421
70534
70688
70916
71122
71292
71469
71600
71656
71704
71726
71775
71759
71743
71695
71584
71458
71397
71326
71302
71301
71281
71262
71262
71279
71272
71285
71298
71299
71294
71290
71263
71243
71231
71232
71220
71234
71228
71229
71232
71242
71246
71259
71276
71301
71314
71337
71363
71378
71412
71430
71450
71487
71513
71529
71543
71557
71587
71620
71609
71522
71416
71307
71246
71213
71197
71213
71244
71256
71279
71297
71311
71326
71358
71415
71420
71417
71438
71438
71452
71482
71484
71520
71516
71539
71558
71562
71585
71619
71623
71658
71684
71710
71710
71754
71789
71797
71828
71837
71872
71888
71932
71948
71945
71982
71997
72017
72033
72035
72027
71938
71822
71699
71645
71621
71594
71580
71566
71608
71615
71631
71650
71686
71705
71729
71748
71753
71774
71773
71764
71779
71791
71796
71828
71821
71837
71880
71873
71905
71913
71947
71955
71959
71981
71992
72034
72037
72074
72079
72124
72137
72145
72161
72172
72202
72215
72233
72218
72173
72071
71947
71857
71812
71781
71771
71778
71777
71787
71800
71786
71847
71859
71861
71884
71864
71875
71850
71837
71870
71861
71880
71891
71902
71913
71915
71912
71934
71951
71970
71961
71983
72000
72009
72029
72059
72065
72071
72093
72107
72119
72117
72070
71966
71876
71795
71728
71711
71699
71697
71718
71718
71736
71732
71766
71790
71824
71836
71815
71797
71818
71787
71817
71807
71819
71839
71834
71865
71844
71863
71868
71909
71892
71913
71891
71924
71957
71947
71977
71982
72000
72036
71993
71899
71773
71680
71603
71564
71543
71545
71542
71553
71571
71570
71566
71597
71632
71637
71650
71651
71639
71647
71651
71658
71671
71669
71673
71713
71703
71728
71749
71755
71768
71808
71821
71822
71862
71880
71902
71917
71972
71963
72000
71998
72036
72068
72079
72033
71907
71770
71676
71608
71555
71546
71522
71518
71521
71539
71540
71550
71558
71614
71620
71634
71632
71632
71610
71629
71646
71647
71665
71671
71680
71692
71714
71734
71731
71752
71784
71816
71800
71836
71863
71895
71904
71913
71933
71971
71984
72018
72037
72065
72015
71911
71772
71673
71597
71583
71551
71523
71536
71541
71555
71562
71583
71615
71642
71654
71647
71654
71652
71672
71634
71654
71672
71683
71690
71712
71731
71747
71776
71778
71786
71814
71843
71856
71873
71884
71900
71935
71956
71973
71977
72008
72014
72033
72042
71984
71851
71720
71635
71586
71574
71565
71559
71590
71622
71614
71634
71665
71699
71706
71704
71732
71699
71697
71697
71716
71702
71728
71761
71763
71768
71801
71817
71819
71839
71857
71883
71894
71903
71939
71969
71975
71991
72005
72029
72029
72020
71949
71835
71710
71638
71610
71600
71626
71613
71621
71635
71645
71664
71688
71728
71738
71750
71746
71747
71734
71708
71696
71684
71702
71717
71714
71733
71734
71749
71776
71789
71787
71816
71816
71844
71863
71883
71880
71916
71914
71933
71968
71953
71865
71768
71644
71569
71529
71491
71497
71486
71501
71507
71504
71544
71574
71590
71633
71640
71651
71638
71638
71628
71655
71660
71682
71695
71709
71706
71726
71733
71782
71768
71792
71819
71846
71858
71869
71898
71931
71941
71974
71977
71996
72030
72047
72075
72072
72106
72131
72145
72129
72029
71870
71781
71698
71653
71654
71655
71621
71645
71651
71668
71670
71693
71729
71752
71763
71784
71775
71775
71790
71772
71800
71821
71822
71849
71872
71881
71912
71925
71950
71985
72009
72025
72058
72072
72091
72120
72156
72171
72190
72231
72241
72254
72278
72283
72321
72351
72343
72311
72185
72052
71963
71926
71889
71864
71887
71894
71906
71896
71925
71940
71973
71992
71987
71991
72001
71974
71977
71966
71990
72000
72010
72038
72060
72069
72062
72047
72099
72110
72129
72149
72142
72170
72183
72210
72230
72235
72250
72255
72288
72296
72326
72283
72177
72070
71940
71904
71853
71840
71836
71849
71856
71849
71874
71892
71924
71969
71967
71962
71979
71954
71961
71965
71971
71982
72002
72006
72019
72021
72061
72070
72072
72074
72100
72125
72135
72157
72164
72193
72180
72202
72208
72236
72250
72250
72190
72085
71961
71856
71779
71744
71755
71745
71757
71772
71766
71766
71782
71816
71836
71857
71867
71884
71841
71843
71849
71878
71881
71891
71904
71923
71938
71949
71957
71981
72024
72037
72048
72095
72103
72143
72168
72172
72226
72231
72264
72285
72309
72327
72361
72370
72374
72275
72143
72025
71939
71890
71869
71861
71839
71855
71843
71867
71882
71885
71934
71975
71981
71990
71991
71987
71995
72006
72010
72004
72037
72062
72096
72094
72098
72131
72129
72177
72196
72213
72235
72261
72274
72319
72331
72358
72383
72417
72425
72451
72453
72472
72495
72504
72525
72538
72538
72484
72354
72225
72128
72043
72013
72011
72044
72032
72052
72056
72070
72087
72123
72150
72152
72153
72160
72134
72144
72146
72177
72159
72171
72169
72199
72196
72237
72247
72248
72245
72304
72306
72329
72344
72356
72388
72405
72433
72450
72460
72468
72507
72514
72516
72543
72492
72386
72252
72164
72105
72065
72057
72052
72088
72090
72120
72104
72115
72161
72180
72187
72199
72197
72186
72206
72199
72210
72215
72238
72249
72257
72262
72316
72307
72323
72337
72354
72355
72385
72387
72410
72418
72430
72458
72448
72475
72494
72495
72485
72386
72278
72160
72073
72035
72029
72039
72017
72030
72022
72034
72058
72081
72102
72142
72129
72133
72139
72138
72135
72147
72146
72175
72169
72186
72190
72217
72224
72245
72246
72259
72292
72311
72340
72364
72379
72412
72418
72441
72471
72487
72513
72522
72546
72560
72566
72610
72593
72510
72359
72242
72159
72097
72077
72043
72043
72052
72045
72046
72065
72067
72103
72129
72151
72133
72150
72150
72136
72133
72146
72164
72175
72170
72200
72178
72217
72238
72261
72271
72283
72307
72318
72344
72376
72388
72407
72420
72435
72454
72494
72502
72540
72565
72556
72576
72614
72623
72593
72489
72355
72239
72149
72095
72086
72053
72062
72073
72083
72084
72083
72126
72151
72158
72153
72188
72181
72173
72162
72155
72179
72181
72199
72212
72225
72228
72254
72254
72277
72292
72294
72317
72340
72356
72369
72391
72410
72431
72439
72460
72460
72468
72490
72513
72494
72416
72295
72173
72107
72032
71993
71987
71988
71979
72000
71999
72022
72058
72079
72107
72123
72133
72128
72101
72084
72107
72121
72132
72138
72139
72162
72158
72189
72196
72216
72222
72235
72254
72267
72286
72298
72336
72343
72348
72365
72392
72395
72377
72283
72159
72027
71937
71881
71862
71860
71858
71844
71855
71868
71877
71915
71927
71946
71929
71944
71945
71919
71938
71940
71960
71967
71957
71987
72004
72017
72036
72056
72084
72085
72111
72115
72154
72158
72182
72217
72218
72263
72286
72316
72333
72323
72248
72130
71982
71891
71816
71796
71781
71765
71777
71788
71802
71800
71820
71859
71899
71900
71903
71913
71915
71903
71919
71930
71932
71940
71983
71976
71997
72021
72042
72050
72083
72099
72137
72136
72168
72202
72201
72232
72243
72278
72281
72307
72326
72362
72376
72367
72411
72417
72355
72203
72055
71956
71898
71849
71850
71857
71862
71864
71895
71890
71904
71938
71979
72004
72020
72033
72031
72029
72027
72039
72059
72051
72074
72092
72100
72129
72151
72161
72192
72195
72209
72255
72270
72274
72302
72323
72364
72357
72371
72398
72417
72415
72454
72460
72459
72492
72482
72411
72276
72160
72044
71999
71981
71954
71959
71961
71962
71983
72006
72012
72043
72069
72063
72078
72073
72070
72060
72064
72078
72079
72087
72093
72106
72130
72137
72175
72175
72199
72201
72252
72244
72252
72261
72289
72305
72324
72326
72326
72359
72368
72396
72407
72347
72227
72085
71986
71936
71893
71884
71893
71888
71909
71920
71937
71942
71993
72009
72006
72018
72015
72005
71998
72005
71999
71997
71997
72017
72028
72049
72057
72092
72080
72090
72118
72129
72150
72162
72168
72191
72216
72230
72250
72239
72252
72262
72174
72026
71916
71809
71761
71713
71698
71723
71720
71708
71740
71726
71749
71787
71828
71836
71831
71827
71832
71835
71830
71833
71845
71873
71865
71893
71913
71930
71926
71957
71987
72009
72018
72052
72078
72091
72122
72156
72158
72219
72233
72249
72260
72269
72306
72333
72331
72372
72290
72175
72017
71924
71871
71840
71807
71822
71806
71806
71840
71846
71855
71894
71925
71944
71942
71972
71954
71950
71942
71966
71954
71980
72004
72014
72029
72047
72056
72095
72093
72110
72156
72176
72202
72210
72249
72236
72267
72289
72325
72356
72385
72381
72402
72430
72428
72447
72471
72470
72475
72409
72260
72142
72040
71997
71966
71945
71948
71950
71977
71981
71992
72020
72043
72062
72084
72085
72087
72072
72092
72083
72089
72110
72113
72130
72134
72163
72175
72193
72203
72231
72235
72266
72274
72289
72311
72328
72344
72344
72383
72381
72397
72430
72433
72460
72460
72484
72462
72382
72256
72148
72061
72019
71993
71994
71982
72015
72026
72058
72086
72109
72158
72180
72184
72171
72158
72159
72166
72178
72202
72201
72206
72233
72239
72290
72294
72313
72337
72340
72366
72372
72408
72419
72441
72460
72476
72472
72492
72516
72515
72535
72533
72516
72424
72285
72180
72095
72056
72035
72035
72008
72028
72038
72064
72042
72068
72096
72099
72113
72110
72087
72082
72073
72078
72077
72091
72094
72090
72086
72090
72080
72092
72076
72090
72094
72105
72121
72108
72074
72068
72030
72008
71974
71949
71910
71885
71841
71849
71847
71766
71636
71497
71414
71351
71296
71275
71262
71237
71203
71152
71077
71051
71055
71048
71064
71044
71035
71067
71097
71116
71149
71165
71208
71227
71253
71271
71279
71278
71256
71261
71251
71261
71277
71312
71309
71323
71352
71391
71413
71468
71449
71397
71325
71266
71251
71240
71259
71286
71308
71321
71337
71337
71349
71369
71368
71369
71338
71265
71182
71110
71000
70869
70748
70575
70463
70627
70882
70975
71558
71573
71428
71622
71918
72457
73653
75174
75200
73832
73462
73635
73775
74027
74205
74279
74094
74110
74707
74703
73715
74626
75648
76508
76410
75820
75852
76041
76670
76636
76496
76366
76406
76703
76922
77036
77052
77112
77102
77165
77366
77743
77868
76105
75517
76920
73161
73754
69924
69981
75401
74562
74130
74879
75074
74670
74557
73806
73583
73362
73366
73472
73509
73650
73713
73787
73883
73748
74031
74055
74012
73977
73980
74036
73997
73942
73858
73858
73900
73884
74129
73940
73383
73362
73423
73477
73521
73573
73621
73624
73672
73749
73793
73836
73869
73893
73965
74034
74107
74202
74249
74174
74093
74061
74120
74177
74218
74150
74200
74276
74339
74380
36488
74511
74589
74651
74718
74778
74843
74882
74873
74919
74926
74954
74982
74976
74953
74993
75020
75047
75037
75035
75037
75043
75078
75046
74957
74891
74812
74758
74764
74781
74817
74821
74864
74875
74927
74978
75041
75086
75134
75173
75197
75242
75290
75321
75355
75385
75438
75447
75474
75507
75532
75566
75604
75620
75577
75483
75390
75346
75310
75308
75340
75336
75312
75321
75293
75266
75276
75302
75316
75213
75203
75422
75636
75731
75763
75746
75641
75512
75432
75338
75268
75157
75103
75038
74903
74743
74596
74259
74159
74088
74179
74253
74459
74575
74819
75075
75312
75436
75534
75551
75555
75527
75498
75503
75486
75531
75495
75528
75445
75345
75318
75356
75618
75648
75727
75764
75780
75788
75760
75673
75609
75580
75587
75591
75625
75691
75742
75814
75857
75850
75871
75879
75880
75938
75954
76011
76043
76069
76124
76194
76295
76352
76389
76379
76288
76173
76054
75987
75909
75810
75651
75536
75301
75135
74967
74798
74776
74798
74918
75059
75237
75328
75392
75460
75487
75489
75452
75513
75550
75634
75677
75713
75717
75706
75610
75511
75439
75395
75419
75458
75523
75579
75670
75749
75794
75859
75889
75931
75987
76081
76137
76220
76313
76391
76456
76451
76436
76442
76512
76574
76638
76722
76776
76857
76898
76917
76840
76661
76455
76360
76319
76322
76371
76368
76445
76552
76621
76644
76640
76637
76620
76634
76652
76660
76665
76686
76748
76808
76882
76908
76939
76902
76791
76670
76554
76477
76379
76345
76337
76310
76309
76302
76328
76314
76200
76164
76138
76154
76162
76321
76426
76507
76900
77158
77327
77551
79263
79162
77844
77717
77237
78478
78575
78185
78295
78488
78579
78527
78405
78302
77905
77592
77350
77281
77343
77396
77476
77514
77526
77523
77539
78000
78770
78684
78079
77774
77555
77412
77282
77168
77095
76949
76652
76373
76154
75983
75945
75898
75930
75953
75939
75937
75846
75765
75685
75669
75668
75774
75748
75497
75656
75513
74901
74791
74687
74755
74873
75128
75313
75509
75584
75692
75840
75864
75827
75781
75875
75997
76017
76048
76121
76129
76115
76171
76236
76322
76334
76280
76177
76126
76088
76036
75928
75788
75640
75471
75380
74893
74786
74670
74743
74846
74967
75111
75248
75382
75509
75605
75618
75613
75571
75582
75565
75519
75510
75473
75421
75327
75209
75130
75098
75094
75127
75179
75209
75244
75271
75310
75378
75417
75452
75452
75488
75528
75518
75535
75588
75551
75521
75552
75614
75624
75626
75663
75711
75848
76000
76097
76119
76162
76122
76034
76063
75946
75936
75881
75959
76047
75975
75836
75759
75717
75699
75665
75658
75578
75426
75285
74970
74525
74486
74746
74733
74620
74605
74744
75058
75307
75455
75539
75588
75604
75669
75633
75682
75725
75737
75644
75678
75752
75904
76054
76167
76215
76240
76254
76248
76197
76095
75927
75819
75744
75721
75707
75724
75732
75735
75808
75836
75886
75963
76052
76181
76250
76222
76209
76158
76111
76117
76112
76101
76150
76125
76069
76003
75932
75932
75924
75955
76012
76068
76150
76244
76313
76347
76373
76359
76333
76316
76314
76323
76330
76333
76306
76279
76268
76263
76244
76217
76239
76229
76202
76145
76072
76050
76018
75999
75988
75995
75997
75990
75992
76008
76083
76166
76221
76333
76497
76535
76526
76544
76546
76564
76596
76547
76449
76270
76165
76097
76023
75981
75917
75953
76002
76000
76010
76079
76215
76389
76482
76466
76513
76494
76537
76598
76589
76566
76538
76541
76449
76373
76249
76144
76097
76076
76105
76106
76119
76187
76224
76276
76303
76295
76274
76313
76295
76310
76311
76329
76360
76341
76321
76341
76358
76270
76069
75969
75926
75924
75938
75931
75934
75938
75946
75976
76004
76012
76024
76081
76119
76177
76232
76293
76346
76413
76470
76491
76480
76444
76341
76252
76172
76098
76045
76026
75990
76002
76018
76046
76049
76065
76069
76105
76164
76203
76251
76288
76361
76372
76351
76341
76351
76376
76413
76362
76252
76185
76157
76132
76157
76188
76207
76246
76263
76322
76431
76557
76734
76819
76903
76828
76874
76907
76761
76614
76484
76390
76312
76293
76266
76229
76130
76007
75866
75732
75720
75704
75843
75982
76039
76091
76179
76203
76147
76127
76144
76268
76274
76281
76249
76271
76280
76282
76234
76186
76182
76199
76242
76265
76325
76403
76459
76465
76440
76417
76356
76305
76303
76291
76307
76355
76374
76388
76352
76328
76326
76308
76250
76244
76281
76320
76334
76365
76442
76472
76463
76506
76454
76314
76186
76172
76169
76188
76249
76261
76245
76355
76403
76399
76476
76530
76618
76686
76802
76844
76914
76974
77045
77129
77150
77156
77153
77130
77070
76924
76819
76801
76727
76773
76772
76821
76868
76928
76984
77073
77125
77220
77312
77377
77410
77420
77378
77362
77373
77410
77409
77423
77397
77433
77406
77370
77331
77287
77255
77250
77289
77323
77370
77421
77449
77467
77488
77498
77478
77478
77489
77503
77472
77503
77420
77445
77442
77437
77406
77411
77446
77503
77557
77610
77705
77764
77837
77910
77826
77683
77579
77498
77475
77485
77470
77530
77479
77463
77435
77436
77407
77364
77364
77383
77455
77564
77699
77772
77913
77981
78044
78093
78046
77919
77786
77641
77522
77498
77393
77340
77327
77297
77262
77273
77328
77380
77458
77591
77637
77796
77953
77993
78015
77994
77970
77956
77937
77906
77849
77675
77505
77373
77301
77227
77216
77242
77273
77298
77395
77451
77571
77749
77817
77888
77923
77915
77898
77871
77858
77862
77858
77876
77830
77825
77790
77723
77651
77562
77530
77515
77545
77604
77698
77740
77772
77776
77821
77833
77824
77772
77747
77736
77734
77727
77730
77777
77710
77645
77561
77533
77534
77549
77614
77688
77778
77819
77866
77803
77683
77649
77629
77608
77662
77686
77734
77738
77716
77660
77546
77495
77410
77389
77372
77390
77412
77459
77515
77636
77779
77885
77977
77973
77871
77678
77546
77460
77462
77458
77426
77420
77415
77420
77414
77381
77375
77379
77421
77445
77479
77561
77666
77750
77828
77926
77971
77989
77988
77918
77787
77655
77509
77394
77321
77256
77217
77132
77119
77116
77149
77192
77265
77355
77420
77501
77615
77763
77841
77843
77801
77758
77724
77675
77689
77685
77670
77618
77445
77312
77205
77180
77187
77198
77227
77281
77257
77308
77301
77291
77294
77278
77224
77210
77151
77118
77086
77079
77077
77060
77032
77015
77060
77082
77095
77101
77067
76975
76607
76245
76187
76389
76161
76145
76100
76105
76267
76357
76415
76481
76559
76595
76658
76707
76774
76816
76938
77001
77038
77066
77131
77183
77200
77175
77147
77066
76959
76832
76861
76601
76246
73854
71015
71939
72214
72761
72998
73106
73196
73260
73298
73346
73420
73470
73562
73622
73714
73813
73892
73977
73987
73904
73834
73748
73541
73546
73459
73449
74075
74527
74304
74942
74851
75880
77174
78317
78904
79120
79149
79146
79144
79062
79037
79072
79071
79071
79088
79095
79035
78946
78803
78596
78378
78206
77940
77703
77546
77258
77076
76843
76889
76617
76214
75956
75877
76046
76329
76596
76947
77281
77487
77544
77617
77655
77686
77694
77620
77529
77428
77381
77367
77368
77385
77402
77407
77413
77420
77442
77437
77450
77421
77400
77357
77332
77288
77263
77241
77204
77192
77202
77209
77258
77230
77292
77152
76622
76249
76185
76160
76148
76220
76280
76348
76335
76292
76199
76124
76091
76110
76105
76107
76100
76132
76181
76324
76429
76532
76623
76674
76679
76639
76512
76474
76480
76493
76566
76682
76739
76754
76796
76809
76805
76858
76902
76906
76967
77023
77099
77134
77214
77321
77383
77456
77518
77529
77452
77331
77191
77097
77017
76990
76964
76999
77005
77028
77059
77096
77115
77138
77148
77200
77246
77206
77160
77196
77241
77331
77391
77470
77523
77618
77591
77464
77311
77150
77051
77006
76984
76972
76969
76989
77002
76992
76992
76960
76931
76871
76875
76833
76829
76729
76699
76662
76653
76634
76623
76615
76614
76572
76501
76368
76308
76314
76251
76266
76285
76305
76338
76360
76396
76417
76410
76328
76224
76117
76048
76020
75991
75904
75930
76031
76115
76241
76195
76062
70835
75871
75826
75827
75833
75829
75839
75866
75887
75922
75916
75873
75815
75736
75682
75649
75662
75669
75686
75720
75733
75772
75773
75756
75644
75521
75391
75260
75186
75241
75363
75485
75584
75638
75698
75733
75767
75788
75786
75787
75797
75784
75771
75770
75789
75796
75822
75689
75562
75531
75383
75264
75163
75121
75203
75302
75452
75546
75597
75659
75714
75759
75765
75797
75797
75819
75835
75857
75880
75883
75908
75941
75945
75969
75972
75982
75993
75906
75783
75719
75696
75696
75703
75715
75743
75789
75833
75873
75900
75907
75928
75947
75928
75953
75952
75992
76004
76008
76037
76055
76071
76090
76113
76129
76125
76035
75928
75884
75843
75846
75859
75876
75918
75939
75965
76000
76025
76044
76056
76090
76082
76101
76103
76116
76138
76156
76171
76181
76171
76209
76251
76259
76284
76271
76169
76081
75977
75941
75906
75905
75938
75970
76002
76050
76096
76131
76167
76208
76225
76247
76302
76316
76316
76341
76339
76363
76355
76367
76356
76366
76378
76375
76364
76252
76172
76127
76132
76109
76146
76159
76154
76203
76217
76247
76249
76243
76231
76176
76121
76204
76366
76347
76402
76779
78020
78936
79353
79648
79472
79229
79305
79447
79510
79590
79396
79163
78937
78809
79002
79157
79260
79313
79294
79292
79255
79206
79123
79062
78962
78815
78649
78528
78385
78228
78129
78032
77933
77805
77681
77450
77198
77008
76949
76922
76923
76944
76945
76959
76952
76954
76986
76980
76960
76952
76940
76919
76886
76900
76903
76856
76872
76867
76903
76928
76984
77018
77090
77260
77420
77545
77588
77563
77490
77365
77323
77272
77294
77270
77281
77297
77274
77268
77277
77292
77260
77240
77237
77231
77241
77255
77265
77294
77334
77423
77480
77487
77449
77403
77392
77286
77171
77022
76991
76921
76900
76864
76872
76867
76884
76877
76849
76887
76861
76827
76804
76759
76742
76711
76669
76618
76590
76599
76647
76726
76788
76840
76892
76862
76558
76035
75759
75846
75990
76034
76069
76087
76041
75985
75947
75952
75701
75378
75210
75530
75589
75657
75728
75810
75884
75983
76022
76133
76229
76285
76331
76364
76410
76389
76346
76367
76366
76403
76416
76477
76518
76539
76558
76608
76647
76687
76746
76801
76926
77018
77051
77056
77104
77114
77134
77142
77161
77159
77135
77119
77039
76937
76821
76777
76744
76748
76735
76768
76800
76846
76867
76901
76906
76926
76923
76953
76949
76985
77021
77095
45815
77181
77228
77254
77308
77358
77391
77389
77297
77229
77205
77223
77242
77266
77296
77302
77342
77350
77405
77405
77421
77443
77480
77517
77515
77576
77609
77642
77536
77363
76921
76949
77080
77035
77052
77041
76987
76897
76798
76757
76745
76877
77252
77630
77767
77760
77721
77667
77609
77550
77481
77441
77385
77382
77395
77408
77414
77441
77437
77458
77465
77472
77433
77351
77241
77181
77160
77171
77173
77225
77289
77317
77395
77434
77467
77485
77551
77587
77565
77535
77334
77162
77024
76955
76879
77031
77089
77221
77363
77404
77423
77343
77320
77229
77158
77127
77072
77038
76990
76941
76928
76928
76987
77014
77068
77100
77137
77196
77221
77270
77353
77394
77429
77440
77521
77538
77614
77617
77661
77677
77602
77485
77351
77270
77058
76859
76774
76782
76801
76746
76720
76721
76607
76479
76466
76525
76558
76493
76379
76263
76474
76317
76180
76074
75959
75927
75885
75923
75954
75908
75865
75815
75768
75755
76022
76331
76407
76334
76708
77056
77503
78117
78454
78278
77939
77829
75220
76021
76565
76894
77101
76019
73711
73062
72705
72763
72886
72882
73035
73271
73296
73736
74623
75052
75769
74693
73793
73435
73433
73420
73465
73539
73628
73726
73835
73919
73984
74032
74076
74118
74154
74192
74207
74254
74302
74324
74372
74387
74420
74447
74469
74435
74336
74203
74086
74017
73986
73969
73972
73998
74010
74017
74069
74108
74147
74137
74170
74170
74156
74187
74225
74658
74728
74780
74772
74777
74797
74811
74851
74861
74786
74651
74513
74413
74388
74340
74353
74385
74423
74431
74465
74499
74553
74572
74581
74597
74610
74598
74612
74661
74663
74701
74707
74742
74759
74799
74820
74805
74788
74638
74507
74377
74315
74288
74292
74305
74300
74324
74357
74400
74416
74442
74466
74468
74480
74466
74460
74485
74495
74510
74536
74558
74554
74596
74614
74642
74640
74585
74426
74285
74178
74114
74114
74082
74085
74107
74139
74165
74191
74222
74266
74296
74282
74300
74309
74326
74356
74366
74373
74407
74423
74474
74503
74516
74539
74562
74583
74628
74650
74639
74570
74435
74294
74192
74141
74112
74133
74108
74112
74134
74169
74205
74252
74287
73054
73485
73689
73803
73862
73951
74011
74068
74109
74143
74191
74220
74251
74303
74339
74395
74437
74469
74505
74533
74573
74599
74626
74672
74673
74644
74551
74371
74254
74192
74142
74117
74106
74100
74120
74104
74149
74133
74143
74157
74161
74188
74196
74211
74240
74275
74285
74322
74350
74372
74377
74397
74417
74424
74457
74474
74520
74535
74568
74608
74624
74655
74697
74707
74660
74530
74386
74293
74198
74176
74154
74149
74163
74205
74233
74271
74308
74348
74373
74431
74445
74432
74445
74443
74453
74469
74491
74501
74515
74532
74555
74575
74596
74604
74628
74621
74644
74656
74666
74680
74693
74660
74555
74418
74311
74244
74184
74142
74129
74133
74151
74165
74191
74230
74245
74264
74244
74257
74273
74253
74273
74279
74299
74334
74358
74380
74395
74401
74409
74386
74407
74450
74454
74498
74504
74503
74422
74310
74194
74063
74004
73971
73950
73960
73960
73983
74004
74070
74110
74158
74175
74177
74182
74160
74194
74184
74211
74240
74257
74310
74350
74362
74387
74409
74420
74439
74454
74473
74455
74350
74200
74060
73981
73906
73870
73850
73847
73853
73895
73902
73904
73939
73974
73968
73975
73961
73939
73941
73918
73895
73915
73907
73888
73895
73897
73893
73902
73915
73941
73958
73949
73889
73733
73582
73465
73400
73339
73313
73324
73327
73328
73369
73382
73408
73460
73490
73519
73522
73535
73535
73569
73577
73604
73635
73652
73698
73701
73742
73778
73792
73830
73859
73870
73903
73939
73972
74007
73959
73828
73660
73529
73439
73383
73376
73358
73379
73427
73440
73479
73532
73565
73590
73620
73624
73638
73643
73646
73686
73708
73739
73757
73798
73808
73860
73884
73916
73941
73958
73991
74025
74042
74095
74123
74136
74167
74196
74219
74244
74269
74325
74384
74401
74349
74200
74027
73885
73794
73775
73738
73741
73746
73774
73799
73801
73821
73816
73868
73931
73948
73953
73973
73987
74017
74057
74078
74102
74119
74156
74199
74234
74269
74279
74313
74332
74360
74400
74406
74431
74469
74496
74517
74534
74571
74607
74621
74581
74467
74310
74181
74101
74052
74023
74008
74039
74046
74098
74108
74163
74185
74241
74257
74279
74282
74294
74299
74313
74342
74356
74377
74400
74441
74453
74499
74512
74555
74590
74595
74633
74644
74650
74694
74700
74736
74777
74789
74803
74764
74650
74482
74366
74262
74233
74231
74232
74222
74258
74290
74317
74361
74392
74394
74424
74437
74431
74413
74450
74431
74462
74498
74510
74529
74533
74545
74561
74588
74615
74635
74641
74654
74680
74689
74702
74655
74560
74398
74297
74195
74172
74147
74141
74167
74184
74197
74222
74255
74297
74328
74332
74359
74333
74351
74358
74371
74413
74417
74424
74460
74485
74517
74529
74542
74544
74571
74592
74624
74633
74576
74437
74281
74188
74117
74086
74078
74092
74098
74124
74113
74148
74171
74206
74232
74236
74231
74222
74221
74236
74245
74273
74294
74297
74309
74334
74336
74368
74373
74378
74350
74371
74390
74397
74327
74163
74004
73894
73789
73775
73735
73719
73753
73735
73759
73782
73824
73840
73871
73903
73890
73893
73883
73903
73918
73923
73959
73984
74010
74041
74059
74085
74085
74106
74138
74135
74155
74178
74180
74208
74220
74241
74248
74278
74282
74320
74356
74377
74364
74237
74042
73872
73746
73652
73634
73625
73633
73620
73670
73687
73709
73761
73810
73817
73853
73843
73853
73861
73869
73886
73906
73925
73961
73979
73994
74027
74050
74073
74110
74143
74143
74171
74192
74213
74249
74293
74311
74344
74372
74397
74415
74465
74500
74528
74567
74610
74632
74661
74629
74522
74333
74188
74086
74046
74029
74032
74018
74038
74056
74079
74114
74149
74175
74189
74239
74225
74244
74248
74270
74300
74308
74334
74375
74393
74408
74459
74483
74504
74533
74572
74594
74633
74679
74686
74731
74775
74796
74816
74847
74875
74909
74928
74954
74950
75002
75006
75046
75039
74950
74826
74667
74561
74486
74456
74449
74458
74463
74478
74508
74515
74541
74588
74612
74647
74648
74633
74631
74664
74685
74679
74708
74714
74751
74763
74784
74786
74811
74824
74862
74861
74903
74920
74917
74956
74972
74985
74980
75009
75034
75066
75085
75026
74914
74792
74690
74614
74585
74565
74560
74593
74596
74613
74637
74687
74708
74735
74730
74731
74728
74721
74739
74726
74746
74759
74772
74783
74811
74822
74836
74863
74883
74884
74903
74920
74922
74938
74970
74985
74945
74832
74700
74582
74478
74453
74439
74429
74440
74454
74462
74481
74494
74541
74560
74575
74582
74587
74554
74558
74564
74570
74597
74617
74606
74611
74619
74599
74566
74574
74574
74552
74564
74555
74553
74529
74428
74305
74178
74096
74035
74024
73979
73974
73971
73971
73993
74030
74050
74088
74115
74133
74134
74153
74138
74145
74153
74173
74196
74228
74230
74279
74298
74326
74318
74347
74362
74402
74409
74451
74460
74469
74499
74518
74535
74564
74597
74601
74561
74436
74258
74103
74025
73951
73938
73903
73902
73917
73904
73940
73955
73971
73990
74040
74056
74051
74062
74088
74057
74070
74085
74111
74135
74182
74192
74207
74236
74270
74281
74314
74330
74355
74364
74366
74422
74423
74438
74460
74491
74485
74453
74386
74322
74285
74211
74085
73821
73529
73238
73076
73053
73091
73135
73161
73220
73280
73329
73382
73438
73494
73529
73568
73567
73571
73570
73554
73533
73514
73454
73379
73245
73204
73110
73046
73020
73003
72967
73014
73085
73133
73222
73163
73112
73061
73027
72917
72950
73056
73161
73320
73474
73469
73384
73229
73081
72932
72828
72734
72644
72567
72167
72483
73919
74332
75121
78856
76737
76263
76241
74557
75007
75154
75133
74928
74780
76003
76807
77667
78195
78904
78874
78683
78566
79085
78648
78133
73782
73366
73903
75206
76377
75823
74085
73298
74068
74816
72325
71320
72874
75403
75924
76129
76317
76500
77026
77070
77015
77064
77091
77033
76932
76831
76805
76781
76751
76754
76500
76264
76054
75861
75688
75638
75579
75463
75347
75143
74967
74789
74684
74608
74568
74565
74540
74543
74531
74524
74552
74568
74592
74614
74602
74610
74587
74581
74575
74593
74598
74611
74649
74662
74684
74718
74737
74774
74806
74802
74823
74736
74594
74459
74365
74333
74304
74283
74292
74287
74319
74318
74373
74380
74421
74459
74503
74528
74530
74557
74563
74560
74600
74619
74665
74693
74718
74771
74812
74814
74837
74874
74901
74927
74955
74946
74982
75029
75048
75061
75051
74978
74836
74696
74600
74553
74509
74498
74484
74510
74544
74519
74554
74566
74598
74631
74647
74669
74671
74683
74706
74735
74742
74751
74776
74778
74814
74825
74860
74870
74888
74916
74937
74969
74999
75016
75059
75085
75118
75148
75186
75232
75236
75290
75334
75390
75407
75391
75277
75139
74996
74938
74917
74899
74900
74929
74946
74959
75006
75020
75041
75079
75106
75124
75113
75131
75130
75129
75106
75115
75118
75133
75151
75161
75179
75207
75247
75254
75292
75311
75340
75342
75383
75394
75398
75373
75292
75255
75291
75330
75362
75350
75279
75145
75003
74905
74865
74863
74859
74853
74884
74904
74917
74939
74961
74964
74964
74939
74931
74900
74892
74906
74922
74935
74946
74972
74976
74999
75001
75012
75037
75058
75058
75076
75094
75116
75108
75138
75143
75145
75135
75058
74920
74830
74743
74724
74704
74699
74721
74737
74759
74797
74848
74890
74914
74906
74901
74865
74860
74855
74845
74818
74771
74769
74757
74792
74821
74848
74888
74913
74879
74892
74894
74891
74905
74914
74913
74863
74728
74620
74521
74467
74417
74406
74392
74392
74381
74349
74372
74368
74392
74372
74366
74339
74341
74327
74317
74332
74365
74399
74434
74466
74487
74529
74557
74573
74631
74635
74613
74579
74575
74573
74590
74628
74676
74745
74752
74719
74648
74512
74403
74328
74299
74267
74245
74243
74229
74221
74246
74280
74320
74360
74387
74439
74467
74484
74489
74490
74525
74541
74597
74635
74690
74735
74751
74754
74773
74808
74824
74870
74915
74920
74956
74998
75007
75036
75060
75074
75131
75161
75252
75301
75358
75418
75437
75406
75290
75175
75054
74972
74943
74934
74914
74947
74930
74944
74959
74988
74990
75018
75050
75069
75064
75074
75061
75075
75088
75092
75115
75121
75124
75179
75195
75201
75222
75258
75267
75281
75278
75290
75327
75334
75363
75380
75408
75438
75460
75503
75524
75534
75584
75625
75624
75604
75477
75341
75215
75165
75100
75082
75074
75079
75099
75128
75123
75144
75168
75195
75212
75226
75207
75213
75192
75202
75230
75218
75230
75248
75256
75271
75271
75296
75315
75327
75343
75351
75361
75366
75382
75390
75390
75415
75433
75435
75452
75484
75478
75484
75436
75322
75190
75080
75003
74982
74965
74975
74980
75004
75004
75002
75016
75036
75069
75083
75078
75072
75062
75055
75077
75064
75078
75078
75092
75124
75136
75153
75180
75201
75202
75224
75231
75251
75261
75285
75288
75296
75320
75307
75189
75080
74935
74869
74831
74807
74809
74816
74818
74832
74835
74867
74913
74924
74952
74943
74945
74916
74934
74925
74936
74957
74981
74983
74999
75031
75022
75036
75055
75073
75098
75107
75123
75112
75077
75082
75075
75066
75040
74989
74826
74649
74528
74428
74378
74323
74293
74284
74272
74267
74261
74269
74301
74305
74323
74331
74335
74311
74304
74319
74305
74343
74367
74382
74397
74422
74429
74434
74460
74472
74498
74498
74509
74502
74539
74548
74547
74569
74590
74618
74641
74658
74690
74740
74745
74761
74812
74827
74832
74794
74663
74520
74413
74329
74300
74290
74312
74296
74312
74318
74329
74347
74376
74397
74440
74448
74465
74478
74474
74515
74514
74539
74558
74607
74647
74659
74700
74733
74748
74769
74809
74812
74861
74885
74886
74936
74949
74993
75005
75049
75064
75098
75096
75117
75156
75165
75192
75228
75256
75229
75095
74980
74850
74774
74730
74728
74731
74741
74741
74770
74813
74830
74875
74906
74953
74979
74960
74974
74961
74968
75006
75018
75054
75056
75084
75084
75120
75156
75140
75184
75172
75200
75208
75245
75264
75254
75272
75303
75315
75329
75372
75386
75396
75404
75428
75436
75462
75476
75439
75373
75246
75105
75027
74976
74929
74931
74935
74946
74971
74957
74988
75026
75044
75073
75071
75059
75044
75035
75020
75026
75029
75014
75049
75039
75053
75071
75067
75080
75063
75090
75094
75108
75119
75131
75139
75176
75158
75147
75138
75150
75171
75146
75059
74903
74765
74687
74653
74626
74624
74614
74608
74619
74637
74638
74652
74709
74723
74721
74721
74717
74700
74695
74704
74722
74741
74739
74761
74764
74766
74798
74821
74816
74840
74849
74872
74881
74892
74877
74896
74907
74888
74860
74753
74616
74475
74384
74337
74305
74289
74271
74271
74272
74257
74258
74280
74323
74309
74273
74253
74221
74224
74182
74161
74170
74176
74180
74175
74193
74200
74202
74207
74216
74209
74221
74249
74281
74310
74349
74356
74391
74390
74406
74428
74433
74472
74475
74504
74466
74362
74191
74040
73951
73917
73906
73879
73871
73894
73891
73903
73920
73957
74009
74053
74080
74119
74141
74134
74161
74189
74222
74255
74278
74296
74315
74343
74384
74393
74425
74445
74484
74514
74552
74579
74616
74641
74653
74697
74720
74723
74769
74810
74815
74845
74874
74902
74922
74979
74994
75008
74976
74827
74687
74531
74464
74394
74365
74359
74362
74371
74367
74372
74410
74445
74465
74482
74494
74491
74488
74483
74499
74504
74519
74528
74527
74581
74585
74612
74610
74633
74662
74656
74691
74722
74728
74778
74790
74815
74853
74877
74924
74926
74975
74992
75054
75063
75089
75107
75150
75173
75169
75145
75020
74869
74755
74693
74645
74619
74625
74623
74649
74664
74671
74720
74744
74783
74817
74814
74812
74812
74798
74819
74829
74845
74862
74879
74893
74890
74916
74942
74947
74959
74975
74996
74999
75037
75038
75073
75080
75100
75127
75160
75161
75173
75197
75216
75199
75120
74976
74836
74735
74676
74674
74657
74670
74674
74695
74699
74727
74751
74796
74801
74816
74801
74773
74773
74763
74770
74792
74798
74791
74828
74832
74842
74894
74892
74920
74917
74925
74950
74966
74999
75001
75018
75044
75065
75058
75000
74875
74732
74667
74591
74544
74543
74564
74572
74578
74599
74616
74644
74683
74700
74694
74717
74711
74698
74682
74720
74721
74737
74744
74778
74785
74802
74823
74829
74853
74880
74865
74887
74889
74888
74913
74915
74944
74948
74948
74941
74826
74692
74553
74470
74422
74405
74393
74380
74412
74391
74380
74417
74440
74474
74470
74503
74471
74493
74478
74474
74489
74502
74503
74527
74544
74558
74578
74593
74616
74632
74657
74673
74687
74708
74722
74748
74781
74815
74836
74848
74879
74917
74936
74950
74961
74993
75009
75022
75063
75064
75040
74919
74757
74617
74525
74483
74477
74429
74435
74436
74431
74455
74470
74487
74524
74553
74577
74600
74619
74602
74613
74635
74631
74654
74662
74675
74704
74727
74740
74773
74792
74819
74823
74827
74871
74892
74920
74941
74983
74978
75000
75031
75063
75089
75080
75089
75141
75167
75180
75213
75223
75236
75167
75033
74869
74761
74692
74644
74621
74629
74647
74628
74653
74664
74671
74715
74753
74787
74793
74802
74808
74811
74840
74854
74855
74877
74931
74929
74971
75005
75027
75033
75062
75079
75105
75119
75152
75179
75186
75222
75232
75248
75300
75328
75351
75339
75368
75370
75400
75424
75441
75371
75242
75092
74998
74944
74914
74898
74907
74912
74938
74964
74978
74995
75039
75067
75062
75075
75065
75054
75048
75052
75054
75082
75099
75108
75118
75124
75146
75148
75177
75180
75204
75214
75237
75253
75290
75301
75327
75322
75316
75360
75389
75393
75364
75299
75152
75009
74931
74893
74894
74893
74879
74885
74906
74912
74935
74969
75011
75022
75029
75001
75013
74978
75004
75019
75033
75035
75067
75101
75093
75119
75125
75144
75175
75199
75211
75210
75233
75253
75258
75294
75315
75339
75322
75267
75131
74998
74911
74869
74846
74850
74851
74861
74882
74900
74898
74922
74964
74959
75012
74984
74961
74944
74924
74940
74913
74917
74931
74909
74918
74910
74926
74935
74948
74946
74965
74979
74968
74992
75024
75038
75058
75086
75107
75099
75102
75118
75111
75148
75144
75064
74936
74780
74691
74642
74621
74607
74606
74630
74632
74623
74656
74679
74713
74729
74769
74773
74757
74776
74765
74778
74773
74782
74816
74839
74848
74882
74881
74921
74935
74929
74965
74974
75018
75027
75055
75084
75103
75136
75162
75164
75190
75223
75247
75277
75289
75316
75348
75356
75369
75417
75450
75425
75327
75194
75051
74970
74920
74900
74923
74902
74904
74915
74934
74928
74968
75001
75026
75054
75062
75072
75069
75066
75061
75070
75084
75112
75129
75150
75159
75171
75210
75221
75251
75270
75294
75312
75346
75409
75428
75446
75467
75528
75549
75574
75591
75592
75639
75661
75680
75690
75711
75726
75757
75734
75629
75456
75340
75274
75231
75229
75210
75203
75231
75234
75232
75263
75285
75317
75322
75346
75333
75327
75312
75325
75327
75338
75357
75324
75385
75393
75386
75421
75419
75426
75451
75459
75465
75493
75487
75513
75531
75559
75558
75569
75586
75595
75611
75629
75628
75596
75490
75339
75226
75172
75144
75126
75128
75138
75150
75152
75184
75217
75231
75270
75288
75275
75263
75259
75252
75253
75270
75289
75281
75300
75317
75327
75342
75360
75394
75404
75405
75425
75454
75473
75470
75507
75514
75537
75554
75569
75571
75460
75355
75235
75131
75091
75079
75077
75085
75092
75096
75114
75136
75138
75189
75214
75227
75218
75211
75210
75195
75207
75219
75213
75210
75222
75224
75230
75247
75230
75229
75238
75245
75233
75261
75271
75286
75291
75324
75339
75327
75347
75383
75386
75325
75189
75082
74957
74923
74903
74879
74884
74891
74888
74914
74923
74942
74988
75018
75043
75029
75034
75012
75010
75015
74989
75017
75019
75049
75066
75088
75082
75131
75144
75185
75174
75196
75233
75260
75267
75277
75320
75340
75343
75385
75394
75392
75412
75431
75467
75472
75510
75508
75530
75548
75574
75590
75518
75386
75243
75114
75045
75026
75014
75008
75000
75018
75029
75036
75041
75086
75127
75130
75126
75152
75142
75140
75145
75133
75151
75167
75173
75185
75207
75219
75229
75269
75276
75291
75288
75351
75361
75364
75400
75453
75470
75484
75502
75512
75570
75590
75611
75615
75638
75657
75685
75703
75724
75743
75728
75688
75520
75378
75284
75211
75185
75174
75178
75184
75186
75188
75198
75225
75239
75264
75280
75290
75267
75274
75264
75256
75285
75283
75273
75298
75305
75301
75331
75348
75350
75347
75368
75388
75404
75418
75436
75460
75462
75489
75497
75535
75547
75529
75539
75554
75570
75598
75631
75609
75511
75372
75240
75153
75090
75069
75058
75068
75089
75072
75103
75118
75124
75142
75177
75181
75183
75151
75144
75137
75125
75139
75166
75173
75189
75208
75208
75218
75243
75252
75268
75299
75310
75323
75356
75371
75383
75391
75409
75453
75444
75445
75413
75316
75151
75024
74965
74924
74908
74907
74929
74950
74947
74945
74934
74971
74992
75002
74974
74976
74962
74939
74932
74924
74963
74948
74920
74867
74808
74770
74773
74776
74783
74792
74799
74824
74865
74933
74974
75031
75097
75128
75169
75185
75221
75218
75236
75204
75074
74922
74782
74707
74673
74670
74655
74672
74691
74677
74680
74689
74714
74759
74782
74794
74762
74743
74724
74697
74715
74737
74749
74737
74733
74746
74737
74743
74764
74787
74833
74866
74878
74906
74936
74956
74984
75013
75033
75068
75099
75104
75145
75153
75174
75200
75245
75259
75301
75352
75372
75374
75283
75124
74971
74848
74794
74750
74743
74749
74757
74778
74789
74795
74846
74849
74908
74927
74934
74952
74930
74924
74929
74935
74972
74971
74974
74983
75008
75040
75055
75073
75112
75127
75162
75191
75223
75225
75239
75277
75319
75306
75334
75389
75395
75409
75433
75449
75438
75476
75480
75497
75529
75508
75497
75387
75226
75081
74998
74936
74923
74920
74940
74952
74978
74994
75015
75029
75075
75088
75100
75111
75081
75060
75058
75061
75068
75092
75092
75111
75128
75134
75163
75169
75189
75183
75220
75233
75239
75264
75278
75289
75309
75335
75346
75362
75385
75391
75404
75419
75426
75434
75342
75201
75058
74955
74900
74889
74882
74857
74904
74892
74913
74930
74963
74977
75017
75021
75018
75000
75003
74985
74995
75002
75013
75037
75036
75070
75054
75091
75082
75116
75125
75138
75154
75172
75191
75199
75229
75241
75255
75280
75300
75286
75202
75068
74916
74817
74768
74723
74729
74717
74730
74747
74753
74755
74791
74812
74855
74842
74851
74838
74799
74811
74797
74818
74827
74852
74873
74875
74870
74886
74888
74884
74894
74898
74912
74926
74937
74947
74959
74968
74981
74983
75017
75029
75026
74971
74836
74679
74541
74482
74437
74418
74433
74431
74448
74418
74437
74474
74495
74533
74545
74553
74559
74554
74519
74533
74543
74548
74572
74573
74584
74602
74603
74653
74656
74668
74710
74711
74723
74762
74791
74814
74830
74821
74868
74876
74914
74934
74960
74965
74991
75010
75050
75055
75096
75104
75119
75103
74993
74818
74637
74539
74478
74451
74457
74431
74446
74434
74474
74483
74509
74548
74569
74587
74620
74621
74626
74640
74629
74647
74670
74662
74690
74681
74731
74752
74776
74803
74809
74854
74850
74890
74920
74973
74977
75035
75061
75079
75126
75171
75204
75228
75288
75289
75340
75395
75414
75421
75439
75449
75420
75290
75144
75007
74918
74879
74870
74864
74880
74902
74910
74912
74927
74933
74991
75015
75028
75021
75015
74993
74994
75003
74996
75017
75027
75023
75049
75051
75062
75056
75071
75093
75103
75122
75160
75168
75202
75252
75247
75268
75280
75296
75343
75355
75374
75370
75415
75405
75351
75195
75065
74979
74948
74922
74926
74907
74946
74941
74949
74954
74986
75025
75041
75047
75050
75028
75019
75015
75013
75013
75018
75033
75046
75048
75075
75112
75103
75146
75163
75185
75214
75227
75258
75272
75302
75317
75326
75339
75332
75353
75365
75303
75153
75027
74905
74856
74813
74806
74798
74793
74831
74830
74857
74874
74947
75005
75020
75027
75018
75019
74993
74999
75014
74991
75015
75004
75016
75043
75037
75046
75060
75072
75069
75081
75095
75114
75140
75128
75151
75157
75164
75173
75204
75232
75250
75249
75165
75011
74873
74760
74715
74706
74702
74731
74729
74724
74719
74708
74732
74773
74785
74803
74796
74806
74808
74801
74799
74802
74831
74841
74866
74897
74895
74915
74933
74963
74974
74994
75014
75030
75060
75081
75098
75146
75160
75161
75198
75221
75233
75264
75277
75313
75330
75328
75341
75359
75376
75394
75436
75454
75449
75373
75241
75073
74966
74903
74875
74891
74867
74845
74845
74864
74864
74866
74908
74931
74935
74944
74949
74949
74932
74934
74941
74951
74945
74963
74962
75000
75020
75029
75044
75036
75071
75102
75106
75128
75164
75168
75177
75210
75221
75255
75299
75305
75338
75359
75384
75430
75460
75506
75538
75546
75537
75413
75259
75127
75047
74990
74962
74964
74941
74947
74960
74959
74989
75002
75032
75078
75077
75047
75043
75044
75015
75027
75052
75028
75066
75069
75087
75104
75111
75114
75143
75155
75157
75156
75191
75196
75232
75237
75264
75305
75308
75307
75322
75332
75347
75365
75374
75343
75195
75055
74929
74887
74854
74824
74852
74861
74888
74890
74884
74914
74960
74970
74996
75008
74970
74969
74953
74951
74966
74978
74995
75015
75000
75012
75055
75037
75045
75075
75063
75083
75118
75126
75146
75146
75165
75189
75214
75211
75230
75157
75019
74884
74796
74761
74715
74702
74733
74755
74738
74756
74787
74804
74833
74876
74875
74882
74848
74877
74848
74853
74880
74891
74884
74922
74937
74940
74955
74963
74977
74984
74980
74998
74996
75018
75034
75032
75052
75079
75080
75052
74908
74774
74649
74581
74550
74559
74567
74580
74588
74598
74609
74645
74651
74695
74718
74744
74741
74712
74708
74709
74724
74740
74760
74768
74784
74801
74828
74820
74848
74867
74897
74903
74933
74960
74982
75006
75037
75057
75072
75088
75125
75128
75150
75182
75210
75222
75245
75261
75244
75273
75311
75338
75321
75206
75021
74806
74635
74522
74354
74293
74221
74160
73986
73810
73701
73605
73538
73529
73493
73440
73376
73323
73286
73236
73237
73229
73211
73226
73275
73379
73539
73561
73491
73483
73491
73464
73383
73343
73303
73275
73197
73136
73094
73076
73090
73066
73038
73083
73133
73187
73271
73340
73295
73189
73099
72984
72808
72655
72552
72525
72423
72318
72190
72160
72038
72032
72131
72029
71613
70813
70572
71236
71632
71945
72200
72334
72360
72315
72593
72863
73161
73366
73601
74126
74745
75213
75960
77619
77272
78007
78413
79225
76493
73657
72751
71809
69839
71169
75679
75507
75384
75851
75823
75947
76006
76010
76021
75975
75930
75818
75793
75840
75873
75868
75831
75414
75067
75021
75130
75194
75246
75293
75335
75334
75234
75078
74988
74969
74958
74830
74153
73513
73211
73103
73026
73044
73133
73279
73541
73871
74395
74715
74899
75032
75068
75082
75046
75007
74968
74924
74929
74963
75010
75092
75159
75165
75085
75013
74986
74961
74989
74983
74977
74962
74989
75071
75037
75099
75117
75123
75129
75119
75115
75110
75099
75081
75114
75099
75127
75127
75145
75162
75143
75107
75033
74966
74803
74598
74514
74535
74674
74783
74813
74983
75127
75291
75319
75245
75435
75573
75612
75619
75504
75484
75480
75471
75446
75485
75590
75681
75814
75975
76057
76129
76218
76248
76333
76405
76389
76283
76246
76229
76147
76133
76098
75832
75759
75778
75827
75938
76110
76250
76376
76463
76529
76596
76621
76596
76648
76652
76676
76678
76747
76790
76832
76779
76773
76887
76924
76865
76798
76744
76687
76636
76684
76725
76754
76805
76856
76917
76961
77031
77069
77092
77128
77158
77195
77228
77246
77272
77266
77287
77306
77296
77314
77260
77196
77171
77177
77148
77065
76909
76753
76626
76553
76463
76411
76354
76339
76382
76481
76611
76686
76741
76799
76791
76789
76805
76803
76846
76779
76744
76582
76359
76252
76309
76446
76502
76530
76540
76504
76372
76261
76209
76207
76198
76171
76163
76145
76095
76130
76138
76079
76052
76031
76076
76124
76175
76195
76282
76460
76569
76604
76656
76648
76679
76747
76827
76904
76949
76925
76857
76788
76725
76686
76678
76711
76738
76794
76819
76851
76874
76864
76866
76810
76709
76615
76622
76709
76882
76996
77064
77070
77071
77107
77142
77207
77241
77290
77313
77342
77384
77356
77297
77188
77098
77022
76976
76976
76974
77014
77046
77064
77118
77170
77220
77262
77307
77349
77361
77369
77337
77298
77182
76976
76725
76537
76391
76410
76498
76541
76638
76716
76708
76798
76906
76840
76873
76968
77065
77107
77231
77303
77373
77421
77462
77493
77527
77511
77556
77534
77530
77496
77480
77475
77432
77384
77332
77314
77303
77295
77377
77424
77374
77278
77131
77062
77002
76923
76909
76890
76911
76924
76975
77034
77087
77162
77214
77286
77296
77343
77337
77376
77378
77363
77374
77346
77342
77360
77380
77391
77426
77445
77497
77427
77332
77213
77030
76877
76810
76813
76840
76865
76882
76809
76796
76814
76844
77030
77113
77136
77150
77135
77156
77155
77140
77090
77036
77016
77027
77014
77135
77228
77182
77062
76912
76736
76571
76513
76459
76475
76536
76646
76721
76769
76819
76841
76878
76896
76890
76889
76877
76892
76892
76916
76908
76914
76937
76929
76968
76979
76982
76874
76736
76611
76497
76457
76399
76400
76417
76435
76471
76520
76555
76609
76623
76663
76672
76697
76694
76684
76677
76612
76587
76579
76551
76533
76521
76546
76562
76534
76406
76280
76161
76067
76026
76014
76018
76052
76109
76141
76225
76273
76314
76352
76377
76385
76388
76365
76340
76340
76360
76370
76368
76421
76441
76462
76485
76444
76348
76226
76136
76076
76015
76015
75998
76036
76093
76138
76204
76287
76352
76374
76401
76435
76430
76403
76370
76374
76390
76441
76432
76445
76438
76456
76439
76356
76210
76031
75932
75856
75831
75821
75859
75869
75923
75959
76011
76067
76110
76114
76146
76113
76118
76140
76131
76130
76153
76166
76165
76170
76194
76218
76213
76117
75964
75855
75771
75726
75721
75738
75768
75810
75849
75900
75942
75962
76008
76029
76015
76040
76033
76018
76027
76046
76069
76068
76087
76113
76134
76161
76144
76045
75891
75760
75717
75685
75703
75704
75734
75798
75821
75869
75928
75957
75948
75962
75961
75964
75944
75949
75965
75991
75997
76031
76051
76058
76087
76110
76095
76030
75893
75768
75685
75655
75663
75670
75666
75714
75729
75787
75828
75862
75881
75884
75870
75855
75870
75868
75870
75866
75869
75880
75877
75874
75893
75890
75896
75902
75817
75722
75641
75595
75558
75559
75570
75578
75625
75653
75698
75722
75737
75740
75718
75688
75701
75688
75683
75670
75713
75731
75731
75739
75760
75784
75816
75855
75864
75836
75707
75599
75498
75463
75476
75472
75494
75527
75579
75573
75622
75641
75655
75681
75648
75676
75664
75678
75681
75677
75696
75732
75722
75744
75749
75738
75764
75816
75831
75856
75815
75681
75610
75559
75548
75536
75571
75592
75593
75620
75653
75693
75700
75710
75696
75709
75675
75687
75704
75694
75727
75754
75771
75776
75809
75830
75828
75842
75887
75875
75890
75920
75893
75760
75622
75541
75481
75490
75497
75511
75506
75541
75567
75558
75570
75578
75551
75546
75554
75533
75526
75528
75525
75535
75547
75562
75570
75590
75615
75608
75631
75650
75671
75679
75667
75677
75670
75703
75684
75708
75722
75701
75622
75471
75361
75316
75310
75305
75314
75323
75353
75356
75390
75400
75412
75441
75439
75426
75417
75427
75426
75433
75455
75481
75490
75516
75529
75548
75557
75562
75567
75588
75583
75624
75633
75655
75671
75676
75691
75693
75729
75735
75775
75672
75546
75442
75380
75344
75350
75351
75378
75381
75395
75404
75437
75469
75492
75489
75502
75493
75505
75502
75499
75531
75534
75558
75559
67400
75622
75635
75662
75694
75699
75725
75741
75757
75780
75794
75827
75851
75861
75889
75921
75944
75948
75980
75979
76023
76041
76053
76082
76119
76144
76132
76054
75931
75863
75782
75789
75767
75776
75794
75779
75788
75777
75802
75834
75841
75860
75874
75859
75839
75847
75856
75888
75919
75935
75958
75995
76063
76073
76097
76110
76155
76164
76222
76256
76282
76322
76342
76357
76359
76371
76393
76395
76414
76439
76453
76441
76475
76495
76510
76539
76521
76445
76321
76224
76200
76188
76190
76199
76200
76221
76223
76260
76254
76298
76282
76276
76262
76260
76238
76264
76254
76261
76295
76288
76316
76303
76325
76336
76352
76377
76385
76395
76414
76452
76465
76465
76488
76492
76493
76506
76543
76545
76566
76561
76576
76609
76615
76590
76508
76414
76327
76284
76276
76255
76264
76258
76268
76270
76294
76290
76323
76315
76313
76306
76277
76276
76258
76268
76263
76277
76274
76283
76303
76316
76343
76347
76344
76334
76357
76382
76370
76399
76392
76408
76425
76426
76443
76450
76456
76472
76465
76475
76496
76502
76517
76523
76531
76461
76354
76238
76194
76147
76111
76112
76106
76090
76082
76069
76089
76096
76121
76123
76111
76095
76092
76082
76063
76063
76065
76064
76079
76074
76101
76089
76104
76119
76140
76154
76159
76182
76185
76192
76214
76221
76223
76238
76261
76269
76282
76288
76306
76331
76322
76351
76360
76344
76235
76121
76015
75969
75936
75918
75916
75886
75900
75891
75907
75909
75929
75943
75919
75929
75907
75908
75896
75882
75883
75891
75911
75907
75906
75916
75934
75927
75933
75954
75984
75985
76019
76020
76047
76064
76075
76072
76088
76119
76115
76136
76147
76150
76171
76159
76095
75974
75872
75758
75735
75717
75701
75723
75720
75710
75708
75734
75754
75762
75744
75742
75731
75732
75713
75707
75699
75718
75722
75738
75737
75748
75780
75803
75819
75827
75833
75843
75870
75888
75909
75921
75939
75968
75959
75982
76020
76000
76042
76041
76033
75956
75832
75732
75686
75679
75668
75663
75680
75689
75701
75706
75720
75728
75745
75762
75762
75754
75749
75740
75760
75768
75771
75807
75828
75815
75849
75850
75865
75875
75892
75918
75920
75944
75953
75989
76005
76021
76031
76036
76072
76079
76062
75953
75848
75768
75700
75692
75691
75662
75673
75676
75678
75688
75711
75732
75757
75743
75740
75737
75733
75742
75746
75754
75755
75754
75763
75758
75774
75765
75783
75806
75808
75806
75833
75854
75876
75886
75898
75920
75938
75935
75953
75979
75984
75896
75782
75663
75626
75602
75556
75559
75565
75562
75569
75574
75561
75582
75604
75599
75598
75581
75581
75564
75561
75569
75569
75591
28302
28279
28259
28264
28234
28234
28228
28208
28200
28176
75705
75716
75735
75743
75739
75758
75760
75775
75784
75811
75802
75755
75652
75536
75432
75385
75402
75397
75386
75401
75422
75420
75444
75457
75474
75472
75465
75448
75441
75446
75449
75452
75463
75470
75471
75488
75489
75521
75528
75572
75555
75579
75579
75595
75636
75628
75653
75669
75705
75689
75721
75722
75726
75747
75759
75769
75715
75625
75513
75423
75375
75342
75357
75361
75359
75355
75373
75356
75360
75390
75410
75392
75402
75384
75377
75366
75377
75375
75388
75441
75468
75530
75624
75664
75712
75743
75768
75820
75858
75947
76014
76088
76149
76200
76270
76327
76390
76447
76518
76598