-3,1,10
11367,-30662,1
5503,-30720,2
5567,-30720,4
4300,-23032,25
13,10,18
14,10,19
13,14,19
13,16,17
13,10,17
12,13,12
12,5,10
11,4,10
9,-3,9
7,-3,5
4,-8,3
5,-9,-1
0,-8,-1
-1,-6,-2
0,-5,-4
-2,-3,-8
-3,0,-7
-4,0,-12
-4,0,-13
-4,-1,-15
-5,2,-15
-8,3,-19
-7,5,-17
-8,1,-17
-4,4,-16
-11,0,-16
-10,1,-13
-11,1,-14
-13,5,-12
-11,4,-12
-10,1,-12
-10,3,-8
-8,9,-10
-8,5,-6
-4,7,-2
-1,9,4
-2,6,4
-2,4,4
-2,1,5
-1,0,7
-2,-1,9
-2,-3,11
-1,-3,8
-3,-5,12
-2,0,9
-2,0,9
-7,-1,9
-4,0,7
-5,-2,9
-7,-1,2
-5,-6,5
-7,-11,2
-3,-15,2
-3,-15,2
0,-18,1
1,-15,0
0,-16,1
6,-17,2
5,-13,1
6,-18,1
7,-18,-1
6,-18,-1
2,-18,0
0,-21,-1
0,-21,-2
1,-18,-2
0,-16,-2
-1,-17,-1
-1,-15,-4
-1,-11,-2
0,-12,-1
-1,-10,2
0,-9,3
-2,-16,6
-7,-4,7
-9,-2,5
-9,-1,8
-14,1,6
-14,-1,7
-14,2,8
-17,2,8
-15,2,0
-14,4,-2
-14,2,-1
-16,-7,-4
-10,-1,-1
-9,-6,-8
-10,-6,-8
-13,-8,-9
-15,-8,-13
-18,-13,-19
-18,-12,-19
-22,-12,-24
-20,-8,-28
-21,-3,-31
-20,-2,-31
-22,0,-36
-23,1,-39
-20,1,-38
-19,2,-42
-22,6,-41
-25,9,-38
-26,16,-38
-34,27,-37
-39,41,-42
-43,53,-41
-49,63,-43
-56,74,-48
-56,82,-48
-55,91,-53
-50,92,-53
-46,99,-54
-38,104,-55
-32,112,-54
-28,115,-54
-25,125,-52
-25,132,-47
-23,142,-41
-23,154,-37
-27,164,-31
-26,179,-33
-25,196,-29
-25,208,-29
-23,223,-33
-22,235,-36
-23,241,-46
-21,249,-49
-21,250,-52
-23,251,-57
-18,253,-61
-17,254,-61
-13,253,-58
-11,257,-61
-8,258,-54
-7,260,-49
-4,263,-42
-4,264,-36
-4,264,-32
-4,261,-26
-2,254,-20
0,248,-18
2,242,-14
8,234,-7
14,222,-6
14,205,-6
19,187,-3
17,162,-9
18,135,-7
10,116,-12
1,98,-18
-12,93,-17
-31,91,-19
-52,97,-25
-72,95,-31
-96,93,-39
-116,79,-47
-134,59,-51
-153,34,-64
-164,-6,-74
-178,-48,-86
-184,-99,-95
-194,-158,-107
-206,-221,-117
-221,-295,-128
-232,-367,-137
-240,-425,-145
-254,-457,-154
-275,-478,-158
-295,-495,-163
-313,-501,-166
-331,-505,-172
-347,-509,-176
-367,-514,-181
-384,-527,-186
-401,-547,-193
-411,-572,-197
-420,-603,-202
-423,-641,-206
-421,-683,-213
-410,-725,-219
-396,-764,-222
-378,-796,-222
-362,-821,-219
-346,-829,-217
-347,-817,-210
-360,-792,-191
-379,-759,-174
-401,-728,-153
-424,-692,-137
-445,-665,-114
-460,-637,-99
-472,-618,-81
-477,-606,-67
-476,-601,-57
-470,-602,-51
-455,-613,-46
-435,-627,-46
-408,-645,-45
-379,-667,-50
-348,-692,-57
-316,-725,-67
-276,-762,-71
-239,-784,-79
-216,-788,-77
-213,-776,-70
-219,-756,-61
-235,-732,-55
-246,-707,-46
-259,-683,-43
-271,-660,-40
-278,-643,-35
-279,-628,-38
-276,-620,-40
-266,-611,-40
-248,-611,-50
-232,-615,-55
-210,-622,-59
-185,-632,-70
-160,-645,-71
-125,-659,-75
-88,-671,-83
-51,-687,-82
-16,-696,-82
15,-710,-79
42,-716,-70
62,-717,-65
75,-707,-53
83,-688,-39
92,-667,-25
96,-642,-12
102,-615,1
109,-592,15
116,-570,27
124,-554,35
132,-536,43
146,-525,50
164,-518,57
175,-517,61
188,-515,69
200,-509,76
202,-498,86
199,-473,99
192,-444,110
181,-408,119
167,-366,131
150,-320,142
131,-274,149
117,-228,159
101,-184,164
88,-144,167
78,-110,170
70,-80,172
71,-62,171
69,-46,165
70,-41,162
71,-47,161
71,-59,165
69,-75,168
70,-84,166
71,-83,164
71,-74,159
69,-62,154
72,-48,150
69,-27,137
66,0,129
58,19,118
54,44,111
42,62,101
33,78,86
29,87,75
25,94,60
21,97,51
19,87,36
14,72,28
9,51,21
7,32,16
6,9,10
8,-7,8
8,-19,6
4,-23,6
1,-23,9
-3,-18,5
-12,-8,6
-18,-2,8
-26,6,9
-32,15,6
-37,25,3
-36,31,3
-32,31,1
-22,33,3
-15,32,3
-9,22,3
1,20,6
6,7,12
12,1,16
19,-4,21
25,-12,30
24,-18,37
26,-21,44
30,-24,53
28,-17,60
27,-18,74
25,-9,81
25,-5,90
23,0,93
23,5,103
19,10,108
15,14,107
12,17,113
5,20,114
0,21,118
-1,22,120
-9,25,125
-10,23,123
-13,29,125
-12,25,128
-15,24,134
-15,27,136
-20,31,137
-22,32,140
-29,34,140
-29,36,145
-30,38,149
-31,44,144
-30,49,142
-30,51,141
-35,55,139
-37,56,135
-40,55,135
-45,49,131
-53,51,129
-61,46,129
-68,40,127
-74,32,127
-77,27,120
-79,19,116
-78,13,113
-74,5,107
-69,1,102
-64,-1,99
-52,0,95
-42,-2,93
-34,0,90
-22,7,85
-14,8,82
-8,12,80
3,12,78
8,16,77
13,16,78
17,13,77
19,14,74
19,16,72
15,17,71
14,17,70
5,19,70
-1,21,73
-13,18,68
-21,20,70
-30,16,68
-36,16,60
-42,10,62
-51,6,59
-56,1,49
-62,-5,45
-65,-8,39
-70,-19,34
-74,-28,27
-78,-41,25
-78,-57,18
-83,-77,16
-83,-96,18
-86,-114,16
-81,-135,17
-79,-157,14
-73,-172,15
-61,-190,18
-55,-203,18
-44,-215,21
-31,-220,22
-19,-220,25
-4,-221,30
9,-218,33
20,-214,36
27,-206,44
37,-196,46
41,-183,52
48,-173,54
47,-161,57
49,-151,62
45,-139,59
44,-128,59
44,-121,62
41,-118,60
41,-111,60
38,-110,53
39,-102,49
41,-104,42
41,-99,39
43,-95,34
43,-91,27
44,-86,25
44,-81,20
43,-79,17
44,-77,15
39,-76,8
36,-79,11
31,-79,5
26,-80,4
18,-88,2
10,-92,-2
6,-99,-4
-1,-104,-3
-9,-104,-11
-12,-103,-17
-16,-100,-22
-17,-97,-31
-16,-92,-33
-15,-87,-40
-13,-87,-43
-10,-85,-51
-11,-89,-52
-10,-90,-59
-12,-96,-62
-15,-99,-63
-16,-105,-61
-22,-108,-65
-22,-111,-67
-26,-114,-68
-23,-115,-74
-19,-110,-70
-10,-104,-75
-4,-102,-77
4,-97,-81
12,-89,-79
21,-82,-77
31,-79,-76
37,-70,-72
40,-64,-66
42,-56,-59
44,-51,-52
44,-49,-48
48,-38,-38
52,-30,-30
55,-22,-25
61,-16,-17
65,-6,-14
70,-3,-12
72,3,-7
77,9,-6
80,11,-4
86,15,-10
88,18,-9
91,19,-10
94,21,-11
94,23,-12
97,27,-13
100,33,-13
100,34,-14
102,43,-10
104,49,-11
103,56,-10
103,65,-7
104,69,-2
97,78,-4
94,87,-2
91,91,-2
89,98,1
91,102,1
88,113,0
89,121,0
92,128,-1
93,136,0
96,145,0
99,151,0
106,156,-2
113,164,-3
115,169,-1
122,171,-3
126,177,-5
131,178,-6
137,182,-4
146,185,-9
146,188,-9
154,189,-10
161,190,-11
169,197,-15
173,205,-15
184,210,-18
192,219,-22
204,230,-18
212,238,-18
228,249,-18
247,261,-17
265,274,-17
284,283,-19
308,292,-19
327,307,-17
343,327,-17
363,349,-21
384,370,-24
396,396,-30
412,426,-32
434,457,-36
448,491,-40
467,524,-48
491,562,-57
512,598,-67
529,637,-77
539,683,-84
549,724,-100
549,762,-107
547,798,-118
538,827,-132
522,860,-148
501,886,-162
478,913,-180
456,936,-200
438,958,-222
422,979,-244
406,998,-269
394,1023,-297
384,1049,-327
378,1070,-361
370,1093,-390
363,1113,-423
358,1133,-456
349,1147,-486
341,1161,-517
335,1172,-552
332,1178,-579
320,1183,-609
313,1183,-634
303,1186,-661
291,1186,-683
280,1186,-704
261,1184,-720
245,1184,-736
223,1188,-753
202,1191,-767
179,1190,-778
154,1199,-790
131,1208,-803
110,1218,-813
92,1222,-825
80,1231,-841
67,1239,-844
57,1245,-856
48,1250,-863
36,1257,-873
26,1261,-876
20,1263,-883
12,1266,-886
7,1268,-889
1,1267,-888
-8,1273,-886
-17,1271,-886
-26,1269,-881
-43,1266,-876
-53,1258,-867
-62,1252,-862
-71,1244,-854
-76,1228,-846
-77,1221,-841
-73,1208,-836
-66,1196,-829
-58,1180,-821
-45,1167,-811
-27,1148,-795
-14,1136,-787
0,1117,-769
13,1101,-756
19,1078,-739
22,1057,-725
27,1033,-706
28,1000,-687
26,960,-666
23,937,-655
24,921,-646
29,913,-634
36,908,-632
36,892,-627
43,866,-621
55,843,-611
60,826,-601
73,845,-588
79,1078,-586
60,893,-578
63,845,-562
63,836,-547
59,821,-541
52,810,-526
43,793,-508
36,779,-493
31,763,-474
27,748,-459
25,732,-446
25,720,-427
28,703,-408
31,691,-388
32,686,-369
27,686,-344
23,692,-319
16,700,-298
1,711,-275
-11,714,-255
-17,708,-238
-24,705,-222
-25,690,-209
-25,671,-203
-14,652,-194
-8,629,-185
3,606,-177
12,583,-161
26,561,-148
32,547,-136
40,540,-118
41,536,-106
40,542,-89
34,550,-71
25,559,-50
13,572,-33
0,584,-16
-9,592,-4
-19,600,8
-27,610,17
-36,616,26
-43,622,32
-49,626,35
-53,626,30
-55,622,30
-56,618,24
-58,613,12
-58,607,-1
-59,602,-16
-58,591,-28
-61,576,-43
-64,569,-60
-68,559,-74
-75,548,-90
-77,535,-100
-80,520,-121
-80,503,-134
-77,485,-144
-75,466,-165
-69,449,-178
-63,429,-194
-58,409,-213
-48,389,-231
-42,370,-252
-35,356,-270
-22,342,-287
-15,326,-305
-7,314,-326
4,300,-347
15,288,-363
30,273,-380
40,261,-393
54,246,-403
66,235,-413
76,223,-420
84,211,-430
92,201,-437
98,189,-440
105,175,-446
110,164,-452
114,150,-450
107,136,-451
99,123,-448
92,111,-441
82,104,-441
75,96,-438
67,86,-438
67,78,-433
69,74,-433
72,68,-434
79,66,-434
87,65,-435
103,65,-442
120,61,-450
138,57,-456
151,51,-465
156,43,-475
157,31,-479
152,20,-483
146,4,-491
133,-12,-487
113,-26,-491
94,-41,-491
75,-57,-497
59,-71,-497
45,-89,-499
36,-105,-502
30,-127,-505
23,-148,-510
22,-172,-517
22,-196,-520
21,-220,-531
23,-241,-538
27,-261,-549
33,-281,-558
42,-297,-566
51,-314,-568
65,-331,-578
76,-344,-582
90,-360,-582
97,-375,-582
104,-390,-581
102,-407,-572
96,-418,-560
82,-434,-546
62,-457,-530
42,-486,-514
24,-516,-502
13,-553,-490
16,-591,-479
23,-633,-476
54,-673,-471
84,-716,-470
127,-756,-466
172,-787,-460
214,-810,-451
253,-825,-441
296,-835,-424
329,-831,-401
361,-823,-373
375,-806,-342
387,-782,-308
389,-756,-273
381,-730,-232
370,-702,-193
355,-676,-159
339,-650,-127
320,-627,-99
298,-608,-70
272,-597,-49
244,-594,-31
212,-593,-11
184,-595,2
152,-595,21
119,-595,32
87,-601,42
57,-610,53
32,-626,62
3,-642,65
-25,-663,73
-51,-683,81
-78,-702,89
-108,-715,100
-136,-731,112
-161,-746,123
-184,-750,132
-198,-750,142
-206,-748,152
-207,-731,162
-204,-713,177
-199,-693,191
-192,-673,202
-183,-655,214
-176,-637,227
-163,-623,237
-152,-604,243
-142,-590,250
-132,-569,255
-123,-554,258
-121,-535,264
-119,-517,269
-121,-497,271
-126,-476,279
-129,-453,282
-136,-432,283
-142,-412,283
-147,-390,281
-152,-368,280
-150,-344,282
-146,-320,278
-144,-297,275
-142,-275,271
-129,-256,267
-118,-240,267
-106,-219,263
-93,-204,263
-84,-182,264
-73,-168,265
-67,-154,273
-63,-143,277
-66,-128,285
-69,-116,293
-75,-104,301
-86,-93,307
-92,-80,312
-98,-68,314
-100,-62,322
-103,-45,323
-103,-38,327
-99,-30,327
-99,-22,329
-97,-14,332
-96,-5,334
-96,5,340
-98,14,345
-101,26,355
-100,37,364
-103,47,376
-105,59,388
-103,77,401
-94,86,416
-87,104,427
-76,120,439
-67,136,454
-58,156,468
-45,174,481
-35,200,499
-26,217,515
-19,237,530
-7,254,542
4,268,558
22,285,571
37,296,584
54,308,593
75,312,603
92,317,613
114,317,619
135,316,630
155,319,638
179,319,645
202,323,659
220,328,676
240,330,692
257,331,711
269,339,732
280,341,753
287,350,773
291,358,792
293,367,808
293,374,827
289,381,842
283,385,855
275,387,866
264,387,875
253,385,879
238,382,893
223,372,896
215,365,898
212,355,896
207,347,895
209,336,896
205,331,892
201,327,887
202,329,886
198,331,883
198,334,883
194,342,881
193,350,874
191,363,872
192,371,875
193,379,868
188,388,865
185,392,863
179,396,859
175,395,859
172,391,852
177,380,847
185,365,836
193,348,827
196,328,819
200,305,816
200,287,805
197,273,799
194,268,793
190,263,783
185,264,774
184,265,763
180,272,749
179,277,737
179,286,722
185,290,710
191,298,695
198,303,683
211,306,669
222,303,655
240,301,641
252,288,630
261,272,624
269,254,616
266,241,609
265,225,607
261,211,601
254,202,597
246,196,592
236,188,589
229,182,584
224,180,573
217,178,571
216,175,562
215,172,552
214,168,544
218,166,530
223,162,520
228,160,510
232,157,500
229,156,490
223,155,482
219,156,481
210,156,476
202,158,474
196,162,475
191,165,470
186,170,469
186,177,466
183,183,467
189,186,464
193,182,461
202,180,461
208,171,460
218,167,461
230,159,465
241,157,465
254,152,469
270,152,474
285,159,480
306,164,486
326,176,495
348,186,501
371,194,510
400,197,523
434,196,543
471,191,561
511,184,579
559,172,598
615,162,619
676,152,642
742,150,666
821,151,695
901,158,719
986,167,746
1075,179,774
1166,195,802
1265,216,833
1368,238,862
1475,262,897
1582,285,930
1689,306,964
1794,332,1003
1899,354,1038
2000,379,1074
2103,404,1112
2205,427,1148
2302,450,1185
2393,475,1223
2475,500,1258
2552,525,1298
2622,554,1334
2684,574,1373
2740,601,1408
2788,623,1443
2830,647,1467
2872,663,1498
2910,679,1522
2950,692,1543
2993,701,1567
3030,714,1581
3066,729,1596
3096,744,1610
3123,765,1624
3154,778,1635
3182,797,1646
3211,809,1651
3239,819,1653
3265,829,1660
3290,836,1662
3311,837,1661
3329,842,1660
3345,842,1658
3359,841,1654
3367,844,1651
3373,849,1650
3368,857,1650
3358,866,1650
3341,878,1647
3319,886,1648
3292,897,1644
3263,906,1636
3231,912,1632
3196,915,1624
3163,912,1610
3134,902,1593
3105,887,1572
3080,872,1547
3055,853,1520
3032,829,1494
3015,809,1462
2999,784,1429
2973,759,1395
2952,739,1364
2933,717,1331
2906,695,1300
2878,681,1268
2843,667,1232
2808,658,1194
2772,647,1158
2726,636,1119
2679,629,1078
2632,620,1038
2581,608,996
2527,597,953
2473,584,909
2418,571,862
2365,559,819
2310,547,774
2256,534,735
2203,519,693
2154,504,656
2101,489,621
2044,476,590
1988,462,557
1932,447,536
1874,433,512
1816,416,492
1761,401,475
1705,385,456
1653,369,435
1602,358,416
1558,341,395
1511,331,369
1472,319,350
1438,311,327
1402,304,304
1363,298,285
1332,293,265
1302,290,246
1274,286,229
1245,283,215
1220,273,196
1196,268,180
1181,259,167
1161,249,152
1142,239,139
1127,224,128
1111,208,119
1092,198,109
1072,186,109
1054,171,106
1029,161,103
1005,152,108
978,144,108
954,126,112
922,114,118
895,100,126
863,80,132
833,55,143
799,33,154
765,11,167
734,-13,174
701,-33,185
667,-52,196
637,-68,202
613,-80,210
585,-84,214
561,-92,216
538,-95,224
523,-95,227
509,-94,227
498,-96,227
495,-95,220
490,-96,218
485,-96,218
481,-103,215
483,-114,220
479,-131,221
475,-141,226
472,-153,233
467,-166,240
467,-176,247
458,-180,254
460,-189,266
456,-187,274
451,-184,283
447,-175,289
442,-161,299
437,-148,298
434,-134,304
426,-124,305
420,-116,311
411,-111,313
404,-112,315
396,-113,314
386,-119,319
371,-127,324
355,-137,322
336,-146,337
314,-156,346
285,-160,353
263,-165,366
236,-166,375
210,-163,385
189,-158,391
164,-146,393
142,-134,401
124,-121,405
108,-105,409
95,-90,410
82,-76,413
70,-62,412
60,-52,411
45,-47,411
36,-40,411
27,-40,415
16,-41,413
5,-40,416
-5,-42,425
-17,-46,426
-29,-53,433
-43,-60,438
-52,-68,441
-64,-74,446
-74,-77,449
-85,-84,454
-94,-83,457
-102,-82,459
-112,-78,462
-116,-73,466
-124,-69,465
-127,-63,465
-128,-61,467
-129,-53,461
-129,-52,461
-123,-47,456
-124,-47,457
-121,-43,450
-119,-43,450
-117,-40,446
-111,-43,445
-116,-45,442
-117,-46,437
-112,-48,433
-109,-52,434
-109,-60,424
-107,-66,423
-105,-72,422
-107,-76,417
-106,-81,411
-103,-85,409
-106,-87,406
-108,-86,402
-112,-85,398
-115,-84,399
-119,-81,393
-123,-75,388
-124,-76,382
-123,-74,375
-123,-77,367
-120,-81,360
-115,-87,352
-109,-91,343
-105,-94,335
-104,-96,329
-106,-99,319
-103,-102,313
-105,-108,306
-105,-113,299
-114,-119,294
-116,-126,288
-122,-133,281
-124,-138,275
-130,-142,271
-135,-149,262
-139,-149,252
-136,-152,241
-138,-160,238
-135,-162,224
-134,-165,214
-130,-173,205
-128,-180,195
-125,-188,191
-130,-198,184
-127,-211,183
-130,-227,181
-130,-244,178
-137,-262,179
-138,-278,180
-145,-292,186
-151,-298,184
-159,-299,190
-165,-293,189
-170,-284,187
-178,-276,189
-183,-261,189
-186,-249,188
-194,-232,184
-197,-212,187
-200,-195,183
-206,-177,180
-211,-163,182
-214,-148,181
-218,-135,179
-222,-129,176
-227,-122,181
-232,-118,177
-234,-121,184
-233,-132,184
-233,-141,187
-232,-156,191
-231,-167,192
-230,-184,194
-225,-196,197
-217,-210,199
-213,-217,198
-209,-226,199
-210,-230,197
-214,-231,201
-215,-233,201
-222,-230,202
-228,-230,204
-236,-228,204
-243,-225,203
-252,-221,202
-255,-217,200
-266,-213,193
-272,-211,193
-278,-208,186
-283,-207,182
-291,-203,176
-299,-206,171
-305,-207,168
-310,-212,163
-315,-217,156
-317,-221,151
-324,-228,145
-329,-230,139
-331,-237,131
-338,-245,127
-340,-256,120
-342,-260,114
-346,-269,106
-347,-276,96
-348,-282,91
-346,-286,83
-346,-291,75
-344,-293,67
-342,-295,57
-340,-295,49
-338,-296,40
-329,-301,31
-326,-298,19
-319,-296,6
-310,-294,-4
-300,-294,-14
-290,-286,-29
-279,-284,-39
-267,-276,-54
-252,-269,-68
-241,-266,-77
-229,-258,-90
-219,-257,-108
-206,-253,-120
-193,-245,-134
-186,-239,-148
-184,-234,-160
-176,-226,-167
-170,-223,-176
-168,-218,-188
-158,-213,-197
-153,-208,-207
-146,-205,-217
-139,-202,-225
-130,-201,-228
-121,-194,-235
-117,-193,-242
-112,-193,-240
-110,-187,-243
-107,-188,-243
-108,-189,-241
-109,-187,-243
-112,-185,-241
-115,-182,-237
-119,-183,-239
-124,-181,-233
-130,-176,-236
-134,-175,-234
-137,-167,-236
-138,-168,-233
-143,-162,-232
-142,-160,-235
-141,-163,-235
-140,-159,-237
-140,-161,-240
-140,-167,-243
-134,-173,-243
-130,-181,-245
-122,-193,-245
-122,-203,-247
-119,-212,-247
-113,-225,-246
-109,-233,-249
-109,-241,-247
-106,-244,-247
-101,-247,-249
-99,-250,-247
-99,-243,-246
-92,-243,-247
-90,-240,-245
-85,-234,-247
-83,-225,-244
-82,-213,-244
-81,-203,-245
-82,-193,-248
-82,-181,-246
-86,-169,-244
-93,-158,-247
-98,-145,-245
-105,-132,-245
-113,-122,-245
-120,-115,-248
-127,-109,-246
-132,-105,-247
-141,-93,-252
-146,-90,-255
-150,-86,-257
-155,-80,-264
-155,-75,-263
-159,-71,-271
-161,-63,-277
-163,-61,-281
-165,-61,-289
-169,-54,-293
-176,-48,-297
-177,-45,-305
-179,-39,-312
-181,-32,-318
-184,-24,-328
-188,-17,-335
-193,-6,-341
-198,5,-348
-201,13,-350
-206,20,-360
-209,28,-364
-213,34,-368
-212,35,-373
-210,45,-377
-205,49,-382
-200,52,-386
-194,54,-390
-192,57,-393
-196,61,-393
-194,59,-392
-197,62,-395
-200,53,-390
-213,49,-396
-218,36,-395
-231,22,-393
-244,14,-391
-261,-1,-395
-276,-23,-400
-286,-43,-411
-296,-69,-425
-300,-101,-440
-303,-132,-458
-304,-170,-477
-303,-207,-500
-299,-245,-523
-304,-282,-543
-305,-320,-562
-307,-358,-575
-311,-394,-591
-322,-433,-600
-338,-472,-611
-363,-507,-620
-396,-544,-623
-432,-586,-631
-481,-624,-633
-534,-661,-640
-588,-699,-645
-655,-732,-651
-719,-766,-664
-787,-797,-681
-853,-830,-697
-915,-861,-714
-984,-889,-734
-1048,-920,-756
-1115,-946,-780
-1181,-974,-805
-1243,-1004,-835
-1305,-1035,-858
-1363,-1058,-883
-1423,-1082,-907
-1482,-1098,-935
-1538,-1109,-957
-1592,-1118,-976
-1645,-1128,-998
-1702,-1131,-1021
-1757,-1130,-1040
-1811,-1131,-1062
-1862,-1128,-1082
-1909,-1125,-1101
-1954,-1120,-1126
-1991,-1118,-1143
-2025,-1119,-1168
-2052,-1128,-1197
-2074,-1142,-1222
-2087,-1164,-1243
-2090,-1185,-1265
-2088,-1206,-1281
-2082,-1226,-1288
-2069,-1243,-1289
-2053,-1254,-1288
-2032,-1256,-1284
-2004,-1250,-1273
-1977,-1247,-1265
-1939,-1235,-1251
-1899,-1221,-1241
-1853,-1213,-1220
-1805,-1202,-1207
-1755,-1192,-1183
-1707,-1188,-1165
-1659,-1183,-1147
-1618,-1190,-1129
-1575,-1204,-1106
-1532,-1217,-1085
-1488,-1230,-1061
-1442,-1241,-1034
-1395,-1247,-1012
-1346,-1254,-987
-1299,-1250,-964
-1243,-1247,-934
-1190,-1235,-909
-1137,-1226,-880
-1082,-1212,-850
-1029,-1190,-820
-981,-1169,-787
-932,-1150,-753
-888,-1127,-721
-853,-1098,-681
-821,-1065,-643
-794,-1026,-603
-766,-984,-563
-742,-942,-521
-720,-895,-473
-698,-851,-431
-677,-809,-388
-654,-765,-343
-634,-725,-304
-607,-680,-263
-579,-646,-224
-553,-607,-192
-526,-573,-164
-500,-540,-135
-473,-516,-106
-450,-494,-84
-433,-475,-58
-417,-460,-33
-402,-450,-11
-391,-434,11
-382,-424,30
-375,-404,52
-365,-390,68
-359,-376,86
-343,-359,102
-325,-344,111
-306,-329,124
-283,-316,138
-256,-304,144
-231,-287,151
-207,-275,157
-184,-268,163
-162,-258,173
-142,-248,177
-119,-240,185
-100,-231,193
-82,-217,199
-65,-204,206
-50,-190,219
-32,-177,229
-19,-159,247
-6,-142,257
6,-130,269
17,-113,280
30,-93,291
46,-79,299
65,-65,310
82,-47,320
97,-31,331
113,-16,344
127,0,357
139,10,369
153,18,384
160,23,400
171,23,409
180,21,423
191,11,434
205,0,447
220,-11,455
237,-23,467
251,-38,478
267,-51,485
282,-63,495
300,-80,506
314,-93,516
331,-108,530
346,-118,541
356,-125,558
363,-127,575
369,-126,592
369,-124,616
356,-121,640
344,-114,661
328,-107,688
306,-95,711
288,-83,732
274,-68,751
264,-54,767
258,-37,781
253,-19,786
261,-7,789
273,6,790
289,17,786
310,26,780
334,34,774
357,37,765
381,39,757
412,37,747
437,36,739
457,30,725
481,31,713
506,29,704
527,35,693
548,40,684
566,51,674
586,66,663
605,94,651
626,119,640
653,143,626
688,173,613
730,200,601
774,233,591
822,261,582
874,289,574
929,311,571
983,339,570
1039,364,575
1093,390,580
1147,420,592
1203,457,606
1256,495,614
1308,542,625
1355,591,629
1411,643,640
1462,694,641
1511,736,648
1567,778,649
1617,815,650
1669,850,649
1720,874,645
1767,896,644
1809,913,642
1842,921,637
1874,920,635
1893,917,633
1908,907,628
1918,892,623
1917,877,617
1914,859,615
1908,831,613
1897,812,606
1886,788,603
1875,765,596
1858,745,590
1837,721,582
1813,698,575
1787,679,568
1753,663,563
1718,645,557
1681,629,551
1643,612,544
1606,597,537
1565,587,532
1528,577,522
1487,574,513
1445,565,501
1412,567,487
1372,565,478
1335,567,463
1297,568,458
1258,574,444
1218,580,436
1184,587,423
1150,594,410
1121,605,398
1093,610,384
1070,619,372
1049,626,361
1030,636,348
1009,642,335
993,647,325
976,649,316
956,648,299
942,639,282
920,636,260
903,631,241
885,628,218
864,622,197
839,617,175
819,615,147
795,615,125
770,612,102
745,609,76
719,604,56
700,600,35
678,588,15
656,574,-3
640,561,-18
621,543,-34
611,525,-42
594,506,-49
579,488,-58
564,470,-60
553,458,-65
535,447,-67
522,438,-66
505,429,-67
489,420,-66
466,414,-64
445,405,-61
425,394,-63
409,383,-63
392,376,-67
381,366,-73
370,350,-82
364,336,-90
362,321,-102
362,308,-115
362,292,-128
364,276,-138
362,264,-155
367,250,-162
371,242,-178
371,238,-188
376,240,-204
380,248,-212
383,255,-226
388,265,-237
391,275,-243
394,286,-250
403,295,-258
412,304,-267
418,303,-274
426,309,-276
429,309,-279
437,306,-281
447,304,-286
457,294,-283
463,286,-285
470,276,-285
473,267,-286
474,258,-279
475,254,-279
474,249,-276
472,244,-275
469,252,-269
466,253,-266
461,256,-263
459,259,-263
456,264,-266
454,265,-258
447,265,-257
443,267,-256
435,261,-258
428,259,-255
422,253,-252
414,249,-257
406,245,-253
399,244,-255
395,241,-259
394,236,-262
391,234,-266
392,237,-270
391,234,-269
392,233,-272
392,236,-268
390,241,-264
387,250,-265
382,259,-264
378,267,-260
371,286,-253
361,297,-253
352,312,-254
339,324,-250
334,328,-244
324,335,-240
315,343,-236
301,343,-227
287,348,-221
278,343,-212
269,334,-203
254,326,-188
242,313,-177
230,301,-166
222,285,-157
215,272,-144
207,255,-133
199,235,-118
190,224,-105
178,213,-91
167,203,-75
149,206,-61
133,205,-48
119,206,-38
99,215,-28
83,221,-20
66,226,-13
51,232,-11
34,235,-8
19,240,-10
6,240,-6
-7,237,-11
-16,233,-11
-20,227,-16
-27,219,-19
-33,216,-23
-39,210,-30
-44,206,-36
-52,201,-39
-55,192,-46
-61,189,-47
-64,180,-49
-68,169,-52
-74,161,-60
-77,151,-62
-83,139,-66
-86,129,-67
-88,119,-70
-88,112,-69
-93,104,-70
-99,94,-67
-105,84,-68
-112,74,-69
-117,61,-67
-122,47,-64
-128,29,-64
-131,13,-65
-135,-2,-60
-138,-15,-57
-137,-27,-59
-139,-40,-52
-141,-53,-49
-138,-59,-45
-137,-66,-42
-133,-65,-35
-124,-69,-35
-120,-65,-27
-115,-59,-25
-110,-52,-19
-106,-42,-18
-100,-36,-11
-96,-27,-7
-95,-19,2
-91,-12,6
-88,-3,11
-86,-2,18
-84,-3,24
-80,0,27
-82,1,34
-81,0,39
-85,-1,43
-83,0,44
-89,4,50
-92,6,50
-95,10,56
-101,12,56
-103,19,56
-108,25,61
-110,29,60
-115,34,55
-113,37,55
-114,37,56
-115,35,50
-113,34,48
-110,32,43
-106,25,44
-102,19,38
-97,11,35
-92,4,32
-88,-4,25
-82,-17,25
-78,-24,23
-72,-35,20
-68,-44,23
-64,-53,18
-58,-61,22
-53,-67,21
-48,-72,20
-46,-68,24
-42,-69,25
-40,-70,27
-36,-66,29
-34,-63,30
-34,-59,34
-30,-51,33
-32,-47,39
-31,-46,39
-33,-37,36
-36,-35,39
-39,-33,38
-37,-32,42
-45,-33,38
-49,-40,39
-58,-42,39
-65,-42,38
-71,-47,38
-80,-52,34
-87,-52,31
-94,-56,29
-95,-55,25
-97,-58,18
-95,-60,12
-90,-63,4
-81,-67,-4
-75,-67,-8
-72,-71,-13
-61,-77,-17
-57,-76,-24
-55,-78,-27
-57,-82,-30
-59,-88,-28
-62,-94,-27
-68,-95,-26
-74,-96,-24
-80,-96,-23
-83,-94,-20
-92,-95,-22
-95,-91,-16
-100,-87,-22
-101,-84,-21
-101,-81,-21
-98,-79,-25
-98,-79,-30
-93,-78,-29
-87,-79,-32
-77,-81,-33
-72,-82,-33
-69,-78,-35
-63,-76,-36
-62,-72,-32
-59,-67,-31
-55,-60,-29
-53,-49,-26
-52,-43,-19
-50,-32,-14
-47,-20,-10
-46,-10,-4
-49,-3,0
-48,3,8
-52,6,14
-52,12,23
-53,11,28
-58,8,39
-59,4,45
-65,4,52
-67,4,58
-69,7,62
-71,12,67
-72,18,70
-74,28,73
-69,36,73
-69,42,74
-69,48,73
-70,55,70
-68,56,76
-68,62,77
-72,71,78
-73,78,79
-80,85,86
-83,95,89
-87,106,91
-93,120,96
-97,131,99
-101,148,98
-102,164,102
-105,178,101
-108,195,102
-110,211,100
-108,221,106
-107,234,104
-108,243,100
-108,248,99
-106,258,97
-104,268,95
-103,276,94
-102,285,89
-101,294,86
-101,306,86
-96,316,85
-97,328,80
-96,338,79
-95,345,80
-96,359,76
-92,368,75
-94,372,73
-92,377,73
-91,388,71
-92,394,71
-88,401,71
-90,409,71
-83,415,71
-82,422,72
-79,427,77
-73,432,76
-75,437,82
-70,442,84
-67,445,87
-61,450,89
-58,458,93
-54,465,95
-52,480,100
-50,492,104
-46,503,110
-44,515,115
-40,530,117
-32,543,120
-28,561,127
-19,581,134
-15,602,135
-9,624,140
-8,646,148
-2,668,158
0,689,162
5,714,173
12,734,177
18,751,188
23,769,193
32,784,200
42,801,201
51,820,210
61,831,217
74,845,221
88,856,224
100,868,230
108,875,234
118,879,239
131,884,245
138,891,248
146,898,252
153,906,256
166,907,254
173,910,259
183,911,257
194,911,258
203,908,259
214,905,255
219,903,255
223,898,259
224,891,257
222,884,258
221,875,259
214,862,260
212,844,263
204,835,260
197,824,259
195,809,254
191,797,247
187,788,238
186,772,233
184,758,227
183,745,216
181,732,205
183,717,195
182,700,185
183,679,180
182,659,169
182,639,162
182,617,157
181,592,151
181,571,146
183,547,141
184,524,140
185,500,141
189,476,137
185,459,135
192,438,141
191,424,134
194,407,134
200,393,136
201,381,133
208,369,134
218,358,133
220,347,132
227,341,129
234,328,131
244,314,134
250,302,134
256,289,133
264,275,138
271,255,142
278,237,148
281,215,153
284,196,156
286,174,163
289,155,169
288,143,176
289,129,178
287,121,183
282,117,187
278,109,190
275,106,192
269,104,193
264,98,193
260,93,194
253,91,194
247,87,190
240,79,184
231,71,182
223,60,175
212,47,173
204,31,169
196,14,162
191,-5,159
181,-24,153
173,-45,151
163,-64,142
158,-80,131
151,-100,128
142,-106,122
136,-110,114
132,-118,108
124,-123,104
116,-120,100
110,-122,96
100,-119,89
89,-118,87
79,-115,86
71,-112,85
59,-113,78
51,-113,78
40,-115,75
28,-127,72
19,-137,70
8,-147,67
-2,-161,63
-12,-177,61
-23,-192,55
-33,-207,52
-46,-225,50
-58,-246,48
-68,-262,44
-79,-279,38
-94,-292,35
-109,-302,30
-121,-312,25
-138,-319,16
-151,-323,8
-165,-327,1
-177,-328,-4
-192,-327,-13
-201,-323,-26
-215,-321,-35
-224,-322,-45
-235,-319,-58
-244,-322,-65
-253,-320,-79
-261,-324,-91
-275,-329,-101
-283,-342,-110
-293,-354,-117
-308,-372,-126
-322,-390,-136
-339,-414,-143
-362,-434,-149
-386,-453,-155
-413,-472,-166
-441,-490,-178
-469,-506,-192
-493,-520,-208
-517,-534,-224
-542,-549,-240
-563,-563,-261
-583,-574,-281
-598,-585,-302
-614,-597,-320
-625,-606,-340
-637,-616,-360
-650,-624,-375
-664,-633,-389
-677,-641,-403
-696,-648,-417
-714,-655,-430
-736,-657,-439
-759,-655,-449
-781,-649,-459
-800,-641,-469
-823,-631,-478
-853,-616,-490
-879,-602,-499
-902,-589,-511
-928,-575,-525
-948,-566,-536
-972,-558,-548
-994,-550,-560
-1012,-546,-572
-1031,-547,-585
-1051,-550,-596
-1072,-559,-607
-1098,-575,-620
-1122,-590,-630
-1145,-598,-644
-1166,-603,-656
-1188,-604,-671
-1208,-599,-681
-1225,-590,-692
-1246,-580,-698
-1263,-569,-706
-1277,-555,-711
-1291,-544,-717
-1307,-533,-722
-1330,-521,-724
-1360,-510,-729
-1397,-500,-746
-1431,-489,-767
-1462,-487,-787
-1495,-488,-814
-1520,-487,-843
-1541,-485,-873
-1554,-481,-901
-1560,-473,-935
-1561,-462,-958
-1556,-447,-983
-1543,-433,-1005
-1534,-418,-1020
-1527,-397,-1037
-1518,-379,-1047
-1517,-362,-1059
-1522,-341,-1065
-1530,-322,-1069
-1542,-301,-1075
-1561,-282,-1075
-1591,-264,-1086
-1628,-250,-1100
-1668,-245,-1115
-1718,-241,-1133
-1776,-246,-1158
-1838,-248,-1184
-1901,-254,-1212
-1961,-257,-1240
-2017,-262,-1267
-2070,-257,-1294
-2118,-255,-1319
-2170,-251,-1345
-2216,-251,-1371
-2260,-240,-1399
-2305,-236,-1423
-2346,-229,-1443
-2388,-224,-1462
-2423,-220,-1477
-2454,-224,-1491
-2490,-223,-1506
-2526,-225,-1517
-2563,-228,-1532
-2600,-231,-1544
-2631,-233,-1560
-2663,-234,-1574
-2688,-237,-1585
-2714,-232,-1595
-2729,-233,-1602
-2744,-237,-1608
-2752,-242,-1610
-2752,-244,-1610
-2749,-242,-1611
-2740,-248,-1606
-2731,-251,-1595
-2715,-249,-1592
-2699,-255,-1584
-2673,-256,-1583
-2648,-265,-1578
-2627,-266,-1572
-2607,-265,-1561
-2587,-258,-1551
-2574,-251,-1541
-2556,-239,-1530
-2540,-226,-1513
-2524,-210,-1496
-2509,-189,-1479
-2490,-174,-1470
-2471,-149,-1453
-2449,-133,-1440
-2427,-117,-1429
-2407,-103,-1421
-2393,-90,-1416
-2382,-81,-1411
-2377,-71,-1400
-2369,-68,-1392
-2375,-58,-1386
-2383,-46,-1379
-2385,-43,-1372
-2392,-41,-1371
-2394,-38,-1365
-2390,-39,-1358
-2388,-39,-1349
-2380,-42,-1344
-2366,-46,-1333
-2352,-49,-1328
-2333,-54,-1321
-2321,-59,-1316
-2308,-62,-1307
-2297,-67,-1299
-2291,-73,-1290
-2281,-78,-1276
-2275,-85,-1269
-2261,-93,-1255
-2247,-105,-1245
-2228,-129,-1234
-2201,-147,-1225
-2173,-169,-1214
-2136,-184,-1210
-2095,-206,-1204
-2048,-223,-1201
-2004,-243,-1194
-1967,-261,-1185
-1929,-275,-1174
-1895,-287,-1156
-1862,-298,-1139
-1828,-303,-1116
-1792,-303,-1087
-1759,-299,-1059
-1725,-291,-1026
-1686,-285,-991
-1648,-275,-959
-1608,-264,-924
-1570,-253,-890
-1532,-249,-856
-1494,-243,-825
-1455,-233,-790
-1419,-219,-765
-1384,-210,-740
-1351,-200,-719
-1321,-196,-701
-1291,-190,-683
-1262,-190,-672
-1231,-191,-657
-1204,-191,-646
-1172,-192,-631
-1144,-191,-619
-1120,-185,-611
-1095,-177,-602
-1071,-176,-590
-1050,-170,-582
-1035,-165,-570
-1018,-161,-563
-1009,-156,-552
-996,-159,-541
-985,-165,-531
-972,-166,-522
-959,-173,-509
-940,-177,-502
-924,-184,-491
-902,-193,-481
-876,-199,-473
-848,-207,-458
-819,-215,-446
-790,-217,-427
-762,-220,-404
-735,-220,-387
-707,-218,-362
-683,-213,-344
-658,-202,-321
-635,-193,-295
-609,-185,-271
-588,-176,-245
-557,-166,-219
-533,-155,-196
-507,-139,-173
-481,-127,-148
-454,-117,-128
-432,-100,-105
-410,-83,-90
-394,-70,-74
-379,-60,-60
-366,-51,-46
-353,-44,-34
-345,-38,-27
-332,-35,-19
-319,-32,-13
-306,-33,-8
-293,-30,-10
-275,-29,-10
-258,-28,-13
-242,-29,-15
-223,-29,-10
-211,-34,-11
-207,-35,-12
-201,-41,-8
-196,-50,-2
-194,-51,-1
-188,-55,0
-185,-53,0
-180,-48,4
-171,-44,3
-167,-45,1
-155,-43,0
-146,-40,-7
-142,-44,-7
-135,-44,-14
-127,-47,-21
-121,-50,-23
-116,-54,-30
-109,-64,-33
-104,-72,-38
-102,-78,-39
-97,-84,-42
-91,-86,-45
-89,-89,-46
-86,-88,-43
-84,-90,-42
-81,-88,-40
-76,-84,-36
-74,-78,-34
-72,-73,-31
-67,-67,-33
-65,-63,-33
-63,-58,-31
-60,-56,-31
-57,-57,-32
-54,-51,-32
-51,-52,-31
-47,-58,-33
-43,-57,-35
-36,-59,-34
-32,-62,-32
-28,-61,-31
-25,-63,-31
-22,-65,-28
-21,-70,-28
-18,-73,-26
-13,-76,-24
-10,-75,-23
-6,-77,-19
-1,-79,-20
9,-84,-15
12,-83,-12
21,-85,-9
31,-82,-5
41,-83,0
46,-80,4
54,-77,7
60,-75,14
62,-72,16
65,-72,24
62,-71,29
60,-68,26
62,-68,32
65,-71,34
65,-73,32
68,-72,30
72,-73,29
77,-77,26
78,-79,29
84,-85,36
85,-88,34
87,-91,35
87,-95,34
87,-95,36
83,-97,40
83,-100,37
82,-102,37
82,-103,36
82,-103,33
88,-102,32
91,-102,33
92,-99,31
98,-98,30
105,-99,33
104,-94,28
105,-91,27
104,-91,23
104,-90,23
103,-88,24
104,-88,25
106,-87,25
110,-85,25
112,-85,25
117,-79,22
129,-83,25
131,-81,25
138,-81,27
148,-84,31
155,-82,29
166,-84,32
175,-87,35
183,-85,36
192,-75,46
193,-86,51
196,-92,53
198,-92,57
198,-94,62
196,-92,63
192,-93,66
188,-95,66
185,-96,68
188,-97,62
187,-100,62
189,-99,56
189,-103,58
194,-104,54
192,-99,51
187,-99,50
186,-93,51
176,-86,50
168,-80,51
159,-79,49
145,-76,49
138,-72,47
131,-68,43
125,-67,44
118,-63,44
117,-64,45
114,-64,43
113,-63,43
116,-60,41
119,-61,46
117,-55,46
119,-53,52
118,-49,55
115,-44,60
113,-37,65
112,-28,70
115,-25,79
115,-18,83
119,-12,86
128,-9,88
132,-6,89
142,-7,96
147,-2,100
155,1,101
165,0,107
170,2,106
176,4,114
180,1,122
184,-2,127
191,-2,132
195,-3,140
201,-6,150
212,-4,162
222,-5,171
236,-6,186
253,-1,200
272,-1,219
291,2,232
320,4,257
353,5,278
387,8,301
428,15,331
472,24,356
524,28,388
577,35,419
641,45,453
704,52,489
774,57,523
847,67,558
924,72,596
1009,77,633
1089,84,673
1171,90,707
1257,95,741
1344,99,778
1430,102,809
1515,101,850
1597,95,889
1676,90,929
1743,86,973
1808,78,1014
1871,72,1059
1930,70,1103
1984,67,1145
2035,67,1184
2089,64,1223
2142,64,1258
2194,65,1291
2248,61,1321
2300,58,1351
2355,54,1379
2403,53,1404
2449,52,1429
2497,50,1451
2541,51,1472
2586,52,1488
2633,53,1505
2677,53,1523
2718,62,1536
2758,65,1552
2793,75,1559
2825,87,1574
2854,100,1580
2877,117,1590
2898,135,1595
2916,150,1603
2932,169,1605
2946,182,1604
2958,199,1604
2971,214,1600
2982,223,1593
2992,232,1586
3000,236,1572
3010,234,1559
3017,233,1548
3022,228,1538
3030,224,1529
3037,218,1515
3043,206,1508
3051,195,1496
3061,185,1489
3064,173,1481
3071,164,1471
3070,157,1462
3069,155,1450
3058,152,1435
3051,145,1423
3039,145,1406
3027,144,1392
3013,140,1370
2999,132,1351
2984,122,1331
2966,112,1313
2954,97,1295
2940,82,1277
2930,69,1262
2921,54,1246
2907,38,1232
2893,26,1216
2882,15,1201
2867,14,1185
2845,13,1166
2826,9,1146
2802,7,1133
2777,-1,1119
2746,-1,1099
2711,-3,1082
2675,-13,1064
2636,-20,1044
2597,-29,1025
2562,-42,1001
2523,-53,979
2481,-63,957
2446,-71,933
2403,-81,916
2360,-88,896
2321,-94,871
2279,-98,853
2236,-105,831
2199,-101,813
2155,-107,791
2117,-101,775
2077,-104,756
2028,-98,731
1984,-95,708
1938,-98,691
1889,-99,669
1840,-102,647
1796,-111,629
1752,-113,607
1707,-115,586
1666,-115,561
1623,-115,540
1586,-116,518
1548,-115,499
1511,-111,480
1476,-109,466
1444,-106,448
1410,-105,434
1373,-102,421
1344,-102,409
1313,-95,399
1279,-93,391
1243,-89,380
1212,-88,375
1177,-87,365
1141,-85,358
1108,-88,354
1074,-89,347
1040,-90,340
1008,-87,329
978,-91,320
947,-85,312
919,-84,301
887,-78,292
860,-72,282
833,-71,273
807,-65,262
787,-63,254
762,-60,245
737,-58,239
717,-58,230
699,-59,224
684,-59,219
666,-61,212
649,-62,206
636,-65,202
620,-62,197
607,-64,192
590,-64,188
575,-69,184
559,-68,179
544,-66,175
529,-67,172
509,-70,172
493,-72,169
480,-73,170
462,-76,165
448,-77,161
431,-79,162
422,-79,162
407,-81,159
399,-87,163
388,-87,157
378,-96,154
373,-101,149
373,-106,147
373,-111,144
376,-116,138
385,-122,130
391,-122,125
402,-125,115
413,-124,109
420,-125,98
433,-123,89
442,-127,79
459,-125,72
473,-125,57
487,-125,49
508,-130,41
532,-133,31
551,-129,23
569,-126,15
589,-124,2
611,-118,-7
635,-108,-21
656,-103,-31
686,-95,-39
716,-94,-52
750,-90,-61
786,-82,-65
814,-76,-67
828,-63,-60
832,-48,-35
817,-27,0
790,-9,38
753,9,86
713,23,135
681,41,183
660,51,221
642,67,259
636,85,289
641,106,321
630,134,349
633,153,380
629,165,410
623,185,435
614,201,463
597,215,484
573,230,504
547,237,525
516,245,539
476,251,553
430,247,567
381,250,576
324,246,583
268,243,586
213,234,589
152,221,585
97,211,582
40,197,575
-18,188,568
-75,177,557
-132,165,540
-186,152,535
-240,137,518
-300,121,505
-360,107,488
-418,84,472
-469,61,452
-518,41,431
-558,20,406
-588,0,379
-607,-17,345
-614,-35,306
-615,-52,266
-608,-65,221
-592,-78,182
-580,-85,140
-566,-91,103
-550,-93,63
-533,-95,29
-517,-98,-5
-502,-97,-34
-487,-101,-69
-468,-106,-99
-452,-105,-128
-432,-111,-148
-413,-116,-174
-394,-114,-193
-375,-111,-214
-358,-112,-228
-339,-108,-241
-318,-106,-245
-297,-107,-251
-276,-108,-252
-256,-112,-251
-233,-115,-240
-210,-120,-238
-182,-131,-230
-154,-138,-223
-126,-146,-219
-93,-153,-211
-63,-162,-205
-33,-171,-196
-1,-186,-190
26,-197,-185
54,-214,-182
85,-230,-178
108,-250,-172
132,-271,-165
152,-290,-159
171,-304,-152
185,-324,-144
199,-333,-128
205,-334,-128
213,-335,-123
214,-331,-119
217,-321,-117
217,-310,-114
209,-292,-118
201,-280,-119
196,-271,-117
191,-258,-117
183,-251,-113
180,-242,-113
174,-237,-115
169,-232,-119
168,-225,-121
163,-222,-122
158,-216,-124
151,-211,-123
147,-204,-125
139,-198,-125
134,-190,-128
128,-188,-119
115,-178,-118
110,-169,-113
106,-162,-110
96,-154,-101
83,-145,-94
72,-139,-81
54,-132,-69
41,-127,-60
27,-119,-47
16,-113,-37
3,-107,-30
3,-102,-24
-2,-105,-23
1,-99,-20
4,-93,-26
12,-89,-27
15,-83,-27
18,-83,-33
20,-84,-30
24,-77,-27
26,-72,-26
21,-67,-21
17,-67,-22
6,-66,-18
0,-64,-10
-9,-63,-4
-17,-64,0
-30,-67,4
-35,-66,9
-41,-74,13
-46,-76,10
-46,-84,10
-44,-91,5
-38,-102,1
-30,-111,-1
-18,-119,-9
-5,-124,-15
8,-129,-20
23,-132,-29
33,-130,-35
43,-125,-37
49,-117,-42
58,-109,-51
59,-99,-57
60,-89,-59
54,-74,-63
46,-62,-65
39,-45,-63
27,-32,-61
18,-19,-60
7,-6,-61
-4,3,-58
-17,13,-56
-31,20,-54
-45,25,-54
-51,28,-56
-64,27,-59
-75,26,-58
-83,27,-61
-95,24,-57
-107,17,-58
-115,15,-55
-127,8,-56
-137,2,-54
-147,-5,-54
-151,-11,-57
-155,-24,-53
-159,-28,-59
-160,-38,-60
-155,-49,-65
-155,-59,-70
-147,-67,-72
-139,-77,-79
-127,-89,-86
-120,-98,-89
-110,-112,-94
-103,-124,-95
-98,-136,-98
-96,-144,-102
-92,-152,-102
-94,-158,-104
-94,-165,-106
-95,-166,-104
-95,-171,-107
-89,-173,-111
-87,-175,-117
-83,-177,-118
-76,-178,-123
-72,-182,-129
-67,-184,-136
-62,-190,-139
-56,-196,-142
-55,-206,-146
-53,-216,-150
-48,-228,-152
-44,-237,-152
-42,-243,-152
-39,-241,-149
-38,-243,-142
-33,-234,-141
-30,-231,-131
-24,-225,-127
-26,-219,-121
-21,-215,-113
-21,-213,-105
-21,-209,-102
-22,-202,-94
-24,-196,-91
-28,-194,-84
-31,-191,-76
-37,-187,-76
-40,-182,-69
-42,-179,-63
-49,-172,-65
-57,-165,-59
-62,-160,-55
-64,-149,-51
-71,-141,-51
-71,-129,-51
-76,-120,-53
-79,-112,-50
-82,-100,-52
-81,-91,-49
-85,-85,-49
-84,-80,-48
-84,-71,-54
-78,-70,-54
-77,-64,-52
-69,-64,-53
-64,-64,-55
-58,-61,-53
-52,-63,-54
-53,-68,-50
-52,-74,-47
-47,-83,-43
-48,-90,-39
-46,-95,-38
-47,-102,-32
-48,-107,-27
-49,-112,-20
-49,-114,-19
-44,-117,-17
-45,-120,-14
-42,-122,-14
-36,-129,-7
-37,-133,-3
-28,-140,0
-26,-143,0
-23,-146,2
-21,-152,9
-18,-157,8
-19,-161,12
-22,-162,14
-25,-159,18
-29,-154,20
-31,-149,24
-35,-141,24
-37,-136,24
-43,-129,23
-50,-122,25
-54,-113,22
-57,-107,19
-63,-100,16
-67,-93,15
-75,-84,9
-75,-78,4
-75,-80,4
-76,-77,0
-78,-78,-5
-77,-82,-9
-76,-86,-14
-72,-87,-13
-74,-86,-16
-72,-87,-13
-72,-81,-14
-72,-77,-8
-74,-73,-11
-77,-67,-10
-77,-62,-9
-77,-57,-8
-77,-55,-7
-75,-54,-6
-75,-55,-7
-68,-56,-6
-61,-59,-7
-55,-63,-4
-49,-64,-9
-43,-71,-10
-34,-76,-11
-29,-78,-10
-24,-80,-8
-22,-84,-8
-17,-86,-6
-18,-82,-5
-15,-80,-3
-10,-75,-2
-13,-73,-3
-9,-69,-1
-11,-61,-2
-9,-60,0
-8,-50,-3
-5,-49,-2
-5,-45,-2
-4,-45,-4
-1,-45,-8
0,-42,-8
5,-43,-9
3,-43,-6
7,-45,-7
10,-46,-5
10,-47,-3
9,-45,-2
8,-42,-2
9,-43,1
7,-42,2
5,-39,4
6,-38,8
4,-40,8
3,-38,12
0,-35,9
-3,-32,9
-2,-32,9
-6,-32,5
-2,-32,3
-4,-31,2
-3,-34,-1
-7,-34,-4
-5,-37,-6
-10,-40,-9
-12,-41,-7
-17,-38,-8
-22,-34,-11
-24,-33,-8
-29,-30,-9
-32,-28,-7
-31,-29,-3
-32,-26,-5
-32,-23,-5
-32,-25,0
-26,-21,-1
-25,-20,0
-22,-20,-2
-22,-18,-5
-18,-15,-7
-13,-14,-10
-12,-12,-9
-8,-13,-13
-6,-13,-18
-3,-13,-15
0,-10,-17
3,-11,-16
6,-8,-14
11,-8,-15
13,-6,-12
14,-8,-13
17,-6,-11
20,-8,-10
24,-8,-5
26,-12,-3
30,-14,0
34,-17,3
36,-15,7
41,-16,14
44,-12,19
53,-8,28
58,-5,37
67,-1,45
74,2,57
82,6,63
89,16,74
100,24,82
108,25,96
122,30,104
134,36,115
142,40,128
152,41,140
160,42,149
167,41,156
173,43,165
171,41,168
170,36,167
162,34,172
159,33,167
149,32,162
141,31,156
135,29,148
123,30,132
113,30,126
102,30,110
92,26,92
81,25,79
73,20,64
68,11,49
59,7,33
49,0,23
44,-9,13
35,-18,5
25,-27,-1
20,-34,-7
10,-38,-13
1,-40,-15
-6,-43,-17
-16,-46,-16
-22,-47,-16
-28,-45,-20
-31,-43,-19
-33,-46,-21
-32,-42,-22
-31,-38,-22
-28,-34,-23
-30,-29,-18
-28,-26,-13
-27,-25,-12
-24,-21,-7
-23,-20,-4
-25,-19,-3
-22,-17,3
-24,-17,9
-25,-15,11
-25,-14,13
-27,-14,14
-23,-11,18
-27,-14,18
-27,-17,19
-26,-19,17
-27,-19,14
-24,-26,10
-21,-33,13
-22,-36,8
-21,-43,7
-20,-53,3
-20,-57,5
-17,-66,0
-12,-73,-1
-10,-78,-2
-8,-81,-5
-4,-85,-5
-3,-86,-3
0,-86,-2
-2,-86,-1
-3,-85,0
-6,-85,1
-11,-83,3
-11,-84,7
-16,-88,11
-21,-97,14
-25,-104,15
-25,-118,21
-27,-134,23
-26,-154,29
-27,-174,28
-24,-189,35
-24,-202,37
-23,-213,35
-19,-219,34
-20,-217,29
-15,-214,28
-15,-208,27
-16,-197,19
-18,-184,12
-19,-168,8
-23,-149,0
-26,-134,-2
-34,-111,-5
-35,-85,-13
-35,-43,-18
-39,4,-25
-42,58,-24
-43,110,-23
-45,178,-20
-39,239,-13
-38,306,-9
-40,373,0
-37,443,11
-32,512,23
-25,571,40
-13,637,60
11,715,80
46,810,97
89,921,115
130,1058,131
185,1218,147
242,1407,153
315,1605,165
404,1796,169
515,1964,175
630,2104,173
730,2181,180
788,2179,190
796,2121,195
747,2034,184
651,1946,147
556,1855,91
491,1756,8
453,1641,-92
425,1538,-192
393,1459,-279
373,1401,-352
373,1340,-409
392,1268,-453
411,1190,-483
411,1097,-495
389,979,-493
342,834,-475
289,650,-449
244,422,-411
214,169,-368
197,-96,-307
189,-343,-227
186,-556,-128
197,-712,-23
227,-809,78
269,-839,161
311,-819,216
351,-755,243
385,-662,230
408,-558,175
420,-481,100
395,-456,34
339,-488,-3
255,-574,-17
167,-699,-12
80,-835,7
-11,-959,38
-101,-1056,78
-171,-1112,118
-221,-1130,168
-246,-1123,224
-247,-1099,276
-230,-1062,318
-200,-1009,349
-152,-949,376
-102,-881,392
-61,-831,408
-32,-808,428
-18,-814,449
-23,-842,467
-40,-881,471
-74,-921,462
-120,-960,437
-169,-1003,398
-211,-1026,343
-247,-1050,275
-263,-1094,207
-264,-1146,138
-251,-1198,68
-227,-1245,9
-195,-1282,-35
-173,-1312,-69
-144,-1325,-93
-121,-1316,-115
-97,-1284,-140
-65,-1238,-158
-39,-1172,-173
-19,-1082,-184
6,-974,-193
25,-851,-197
34,-724,-197
47,-596,-199
54,-473,-195
64,-357,-191
73,-255,-184
87,-164,-176
97,-99,-167
110,-52,-151
115,-21,-140
120,-13,-123
119,-18,-117
117,-34,-110
110,-60,-106
98,-84,-112
90,-115,-115
81,-143,-124
80,-176,-129
77,-195,-133
79,-218,-140
82,-233,-140
87,-243,-135
96,-246,-123
101,-252,-111
109,-252,-97
108,-253,-81
101,-253,-67
85,-253,-57
73,-251,-47
57,-252,-45
41,-252,-46
35,-254,-51
38,-249,-54
42,-246,-57
50,-237,-62
59,-228,-66
66,-207,-73
71,-184,-70
71,-161,-70
67,-131,-62
60,-99,-59
57,-70,-47
47,-44,-43
43,-24,-38
44,-8,-38
50,5,-40
57,16,-37
63,23,-35
71,35,-31
79,48,-27
86,62,-22
95,80,-18
98,102,-13
97,128,-17
91,155,-16
84,175,-21
76,195,-24
59,219,-28
49,246,-38
41,278,-43
36,317,-54
42,362,-72
60,443,-85
85,550,-94
108,661,-102
114,744,-100
88,781,-95
33,722,-70
-6,656,-71
5,606,-108
18,511,-122
54,411,-140
118,321,-159
204,318,-186
281,402,-203
290,560,-192
226,710,-159
119,763,-107
7,683,-54
-55,493,-11
-59,242,18
-28,-17,41
13,-272,65
51,-525,89
98,-745,112
149,-907,129
185,-1021,148
201,-1081,172
191,-1095,207
173,-1073,241
156,-1017,265
142,-952,279
129,-882,287
106,-815,287
79,-750,284
50,-682,266
15,-618,244
-26,-571,217
-67,-531,181
-112,-492,141
-153,-441,93
-184,-387,42
-218,-332,-15
-244,-271,-75
-266,-205,-129
-279,-141,-184
-285,-71,-234
-287,-5,-273
-286,55,-300
-276,105,-324
-258,148,-336
-242,189,-340
-224,224,-334
-200,261,-322
-180,298,-310
-158,331,-287
-135,364,-264
-116,396,-238
-101,430,-209
-89,460,-177
-76,493,-147
-74,530,-115
-64,562,-83
-60,591,-54
-55,612,-26
-49,625,-3
-42,634,16
-32,629,38
-23,620,49
-17,598,62
-10,581,67
-5,557,65
-6,524,62
-7,489,53
-15,454,48
-30,417,37
-44,381,20
-54,351,6
-62,322,-12
-63,304,-30
-66,290,-52
-61,283,-74
-60,281,-94
-58,280,-104
-62,269,-107
-68,252,-113
-81,226,-112
-99,188,-104
-128,140,-96
-158,86,-82
-185,34,-67
-205,-17,-60
-214,-64,-53
-211,-107,-58
-200,-140,-65
-172,-169,-72
-150,-195,-82
-124,-211,-90
-93,-223,-91
-66,-227,-91
-43,-222,-88
-28,-215,-88
-16,-202,-82
-9,-183,-72
-5,-159,-61
-5,-135,-52
-4,-113,-42
-6,-87,-31
-6,-59,-24
-7,-42,-16
-3,-25,-7
1,-12,-5
9,-1,-2
18,2,2
30,4,4
41,3,5
54,2,6
65,4,3
76,7,2
79,7,0
79,12,-5
76,19,-12
70,28,-17
57,35,-24
44,43,-31
31,51,-33
14,56,-43
0,56,-47
-15,53,-48
-30,47,-52
-44,33,-51
-53,14,-49
-63,-7,-52
-66,-26,-49
-69,-37,-49
-68,-42,-47
-66,-37,-48
-64,-29,-46
-58,-14,-43
-52,1,-36
-42,24,-31
-35,42,-27
-28,59,-17
-19,80,-11
-12,95,-3
0,105,8
10,114,15
22,120,24
31,122,30
40,116,34
43,111,40
46,104,45
46,96,48
48,84,47
48,76,48
48,65,45
53,59,48
59,57,50
68,52,55
72,47,56
80,41,59
84,36,63
91,28,70
93,15,78
94,5,86
88,-7,97
91,-25,101
86,-40,108
86,-56,115
87,-62,117
87,-71,122
91,-73,124
87,-76,121
86,-70,121
83,-64,115
74,-54,117
62,-47,108
45,-33,100
30,-25,89
10,-15,83
-12,-6,74
-38,-3,63
-57,-4,51
-76,-3,39
-94,-8,30
-108,-14,19
-116,-24,13
-124,-29,3
-121,-42,-2
-116,-53,-5
-111,-57,-7
-105,-62,-11
-101,-61,-11
-92,-61,-5
-86,-57,-3
-83,-51,2
-81,-46,8
-76,-36,10
-73,-30,16
-73,-20,21
-74,-12,24
-71,-11,28
-72,-9,32
-71,-9,35
-66,-11,34
-65,-17,36
-65,-22,35
-64,-26,33
-63,-28,35
-61,-28,35
-62,-30,33
-63,-29,33
-65,-27,34
-64,-24,36
-67,-21,35
-68,-20,35
-68,-11,35
-73,-3,34
-77,3,30
-82,13,24
-89,20,17
-92,30,13
-95,38,9
-97,44,-3
-100,49,-8
-95,56,-13
-95,54,-22
-96,50,-27
-98,48,-31
-100,43,-30
-99,38,-36
-103,31,-37
-107,25,-37
-116,18,-36
-120,15,-39
-119,11,-41
-120,6,-42
-119,2,-48
-111,1,-50
-104,0,-50
-94,-2,-54
-88,-2,-54
-80,-5,-50
-74,-9,-51
-65,-13,-45
-59,-12,-44
-51,-12,-39
-42,-15,-32
-34,-20,-23
-27,-25,-15
-22,-31,-7
-15,-41,-1
-6,-48,5
-3,-57,13
1,-59,15
5,-62,17
4,-61,19
8,-59,21
9,-51,23
7,-49,16
8,-39,15
3,-33,13
3,-23,9
-1,-19,9
-2,-14,3
-5,-7,1
-7,-11,0
-8,-12,0
-7,-20,0
-6,-25,4
-6,-32,2
-3,-49,9
1,-61,9
3,-74,11
8,-80,16
14,-89,17
15,-87,21
17,-88,25
15,-87,32
13,-80,35
11,-75,39
10,-71,43
3,-59,41
5,-52,41
0,-43,39
-2,-33,41
-7,-25,36
-9,-20,35
-15,-16,29
-17,-15,25
-21,-15,22
-23,-29,21
-29,-37,21
-37,-46,21
-41,-59,20
-47,-69,19
-56,-79,19
-58,-80,19
-66,-81,15
-73,-73,10
-82,-65,2
-87,-56,0
-89,-47,-5
-97,-39,-13
-98,-26,-17
-105,-18,-31
-107,-13,-40
-112,-9,-50
-117,-7,-67
-122,-8,-81
-123,-19,-97
-123,-28,-113
-122,-45,-128
-116,-66,-141
-113,-88,-151
-108,-109,-160
-105,-124,-160
-106,-137,-157
-109,-150,-150
-114,-158,-141
-118,-167,-127
-121,-176,-111
-125,-184,-95
-128,-188,-80
-130,-193,-65
-129,-199,-43
-131,-207,-29
-135,-215,-17
-136,-222,-3
-141,-228,8
-142,-240,19
-150,-246,28
-158,-253,38
-163,-257,45
-170,-261,54
-176,-260,59
-187,-256,62
-191,-253,64
-193,-252,73
-196,-246,73
-193,-243,70
-193,-241,74
-187,-237,72
-181,-234,78
-176,-235,80
-164,-243,85
-153,-252,87
-147,-263,92
-137,-273,103
-129,-282,112
-122,-291,125
-110,-300,131
-95,-303,138
-81,-309,147
-71,-306,154
-55,-301,162
-44,-297,164
-34,-288,170
-25,-278,175
-21,-262,181
-16,-253,188
-15,-241,195
-14,-228,196
-17,-222,205
-21,-216,207
-25,-210,216
-26,-210,221
-27,-210,223
-25,-214,225
-20,-218,227
-12,-221,226
-1,-223,224
9,-221,225
20,-222,222
35,-222,219
47,-216,214
53,-208,212
59,-199,207
64,-190,207
68,-173,204
69,-165,206
73,-146,205
75,-134,202
75,-120,204
76,-106,204
77,-89,200
79,-78,203
80,-67,206
79,-56,206
78,-46,207
75,-33,211
73,-21,211
67,-14,213
65,-5,213
59,0,216
48,8,217
38,16,217
33,25,222
26,34,218
17,41,229
13,42,228
6,43,229
5,37,233
3,33,235
3,25,236
9,20,239
11,17,242
22,14,242
31,8,248
42,8,250
53,8,252
65,5,251
79,9,250
89,14,249
97,13,250
105,11,251
108,3,254
108,-9,257
104,-37,268
101,-73,274
95,-105,277
93,-131,274
87,-152,270
86,-167,262
85,-174,255
80,-179,246
71,-186,241
63,-193,239
51,-202,240
44,-221,238
36,-241,239
31,-260,242
26,-282,239
20,-307,245
11,-338,249
6,-366,250
8,-395,244
16,-416,240
22,-432,233
32,-440,229
32,-447,224
34,-453,218
33,-453,215
27,-445,211
13,-432,210
0,-419,209
-14,-405,210
-32,-389,209
-45,-378,204
-58,-363,201
-65,-343,192
-70,-317,183
-69,-292,172
-66,-263,160
-58,-233,145
-50,-201,135
-33,-166,121
-19,-133,104
-2,-104,96
9,-82,81
26,-63,73
39,-46,66
50,-33,58
59,-21,53
70,-16,50
81,-11,47
91,-12,46
104,-19,47
115,-18,49
125,-21,52
137,-26,52
149,-23,58
161,-15,58
170,-10,61
183,0,63
195,4,68
207,5,72
214,7,75
215,6,84
217,-4,86
215,-17,90
211,-34,94
206,-55,97
202,-73,97
200,-95,98
198,-113,98
197,-124,96
198,-133,95
204,-134,90
205,-132,80
213,-125,73
223,-117,64
231,-100,52
242,-87,42
249,-72,35
262,-58,25
266,-40,18
271,-24,10
274,-8,3
276,5,-1
274,18,-5
271,24,-6
268,31,-8
262,38,-9
255,42,-8
250,37,-9
243,41,-2
239,37,-5
234,33,-3
232,30,-8
229,26,-12
224,28,-15
221,20,-20
218,12,-29
217,11,-32
211,3,-37
206,1,-44
200,-6,-46
190,-11,-51
180,-14,-58
170,-20,-61
154,-26,-69
137,-33,-70
118,-39,-76
101,-48,-85
86,-56,-89
69,-72,-95
53,-99,-101
36,-100,-104
17,-103,-112
-1,-111,-117
-15,-121,-121
-31,-131,-129
-47,-141,-134
-62,-152,-143
-74,-162,-149
-84,-173,-152
-96,-187,-160
-102,-204,-167
-106,-219,-169
-106,-238,-171
-107,-254,-176
-104,-270,-179
-106,-289,-180
-107,-304,-183
-111,-317,-183
-116,-332,-185
-122,-343,-189
-130,-349,-193
-139,-358,-197
-147,-369,-201
-149,-377,-206
-145,-392,-212
-144,-411,-220
-137,-430,-223
-132,-456,-228
-126,-490,-229
-118,-522,-232
-116,-559,-233
-107,-601,-231
-103,-642,-232
-103,-689,-225
-97,-739,-222
-91,-787,-222
-85,-831,-222
-77,-878,-222
-63,-915,-228
-41,-950,-234
-21,-980,-239
10,-1009,-242
40,-1030,-247
70,-1052,-254
98,-1073,-256
126,-1088,-259
150,-1108,-262
168,-1126,-262
183,-1149,-263
194,-1172,-262
204,-1198,-262
211,-1233,-258
217,-1272,-248
225,-1312,-244
237,-1357,-232
254,-1403,-225
274,-1451,-216
290,-1499,-201
308,-1544,-194
326,-1590,-183
342,-1624,-173
361,-1655,-165
372,-1683,-160
384,-1705,-155
383,-1727,-154
376,-1740,-152
369,-1756,-153
354,-1762,-160
340,-1770,-171
332,-1772,-178
320,-1772,-194
314,-1764,-209
310,-1757,-225
316,-1745,-237
327,-1736,-244
345,-1727,-257
366,-1719,-264
397,-1717,-276
429,-1722,-288
455,-1728,-298
482,-1736,-303
505,-1748,-316
513,-1753,-327
520,-1746,-346
524,-1725,-370
526,-1689,-396
526,-1648,-422
527,-1610,-443
536,-1574,-459
547,-1541,-479
562,-1518,-491
578,-1499,-505
595,-1489,-516
613,-1483,-522
628,-1487,-531
643,-1486,-539
647,-1470,-546
652,-1442,-545
644,-1410,-546
637,-1380,-543
620,-1351,-544
594,-1330,-544
566,-1318,-541
535,-1308,-538
503,-1296,-537
476,-1284,-531
458,-1267,-527
438,-1242,-519
426,-1221,-514
416,-1199,-508
410,-1172,-501
408,-1148,-499
407,-1135,-494
405,-1116,-490
404,-1088,-494
391,-1054,-492
384,-1014,-496
371,-980,-505
350,-945,-514
334,-904,-519
316,-861,-520
297,-821,-523
280,-785,-526
268,-749,-527
253,-710,-532
240,-663,-532
229,-601,-542
220,-523,-554
211,-438,-566
197,-353,-583
171,-272,-602
144,-199,-623
113,-123,-644
75,-57,-667
33,13,-691
-6,76,-716
-45,146,-740
-80,222,-765
-109,290,-781
-136,364,-799
-158,453,-816
-185,533,-829
-210,609,-839
-237,679,-852
-262,747,-864
-292,811,-873
-317,876,-884
-335,937,-889
-348,998,-898
-356,1056,-904
-355,1109,-900
-352,1165,-902
-343,1209,-902
-329,1255,-898
-313,1288,-897
-298,1322,-893
-285,1357,-895
-282,1393,-894
-278,1423,-894
-287,1457,-899
-294,1484,-906
-297,1516,-915
-296,1544,-917
-292,1568,-923
-273,1588,-927
-246,1609,-927
-217,1628,-934
-183,1644,-931
-150,1667,-928
-115,1694,-919
-101,1714,-913
-91,1731,-902
-89,1753,-895
-84,1769,-888
-86,1788,-884
-88,1806,-880
-82,1825,-880
-86,1829,-877
-88,1835,-876
-92,1840,-879
-101,1834,-878
-114,1822,-878
-137,1802,-877
-157,1777,-878
-174,1761,-874
-190,1755,-870
-206,1750,-860
-223,1752,-841
-248,1757,-822
-284,1763,-798
-331,1774,-770
-381,1785,-742
-440,1793,-717
-500,1807,-692
-560,1813,-665
-621,1823,-636
-676,1830,-613
-731,1840,-590
-784,1850,-561
-839,1856,-534
-898,1869,-512
-958,1882,-493
-1020,1903,-476
-1068,1932,-468
-1110,1970,-461
-1141,2014,-461
-1155,2055,-469
-1154,2101,-477
-1141,2143,-491
-1121,2189,-522
-1090,2226,-568
-1045,2251,-624
-1000,2276,-694
-949,2294,-769
-899,2311,-845
-842,2323,-915
-772,2329,-970
-703,2314,-1026
-636,2292,-1079
-561,2267,-1123
-489,2229,-1156
-422,2199,-1190
-355,2187,-1208
-288,2175,-1214
-216,2173,-1214
-160,2178,-1200
-106,2182,-1173
-50,2178,-1148
27,2163,-1131
129,2140,-1114
263,2113,-1110
465,2096,-1123
761,2097,-1166
1105,2146,-1227
1457,2242,-1286
1787,2333,-1311
2056,2408,-1281
2240,2480,-1172
2321,2528,-989
2317,2539,-764
2274,2503,-550
2198,2418,-363
2070,2288,-190
1867,2119,-41
1617,1911,78
1378,1694,161
1184,1443,210
1021,1172,242
891,942,274
764,757,321
655,616,387
554,526,467
454,481,569
341,467,690
210,472,812
73,479,937
-73,479,1056
-216,470,1165
-379,435,1253
-532,401,1331
-681,365,1369
-835,306,1394
-979,241,1394
-1109,171,1381
-1216,94,1352
-1312,17,1310
-1390,-68,1255
-1418,-116,1198
-1438,-168,1132
-1421,-236,1069
-1370,-266,1006
-1314,-306,950
-1248,-315,897
-1187,-337,847
-1109,-356,802
-1044,-370,756
-991,-388,719
-942,-399,695
-914,-410,681
-881,-392,686
-870,-378,691
-858,-367,706
-846,-355,713
-823,-353,725
-789,-352,739
-740,-360,746
-685,-381,747
-624,-413,748
-574,-448,748
-531,-483,748
-498,-520,742
-474,-555,749
-467,-576,753
-466,-588,758
-476,-591,761
-497,-586,769
-518,-576,779
-537,-558,778
-552,-535,774
-571,-514,768
-583,-490,758
-594,-467,744
-609,-447,727
-624,-424,713
-638,-408,698
-649,-396,683
-655,-394,675
-654,-394,673
-646,-390,675
-638,-388,690
-630,-372,710
-612,-331,735
-603,-264,763
-608,-211,788
-627,-198,808
-648,-203,826
-676,-217,832
-705,-226,822
-740,-224,808
-769,-216,784
-788,-210,749
-800,-203,705
-793,-191,664
-786,-181,623
-773,-169,580
-761,-157,541
-752,-145,509
-739,-130,478
-738,-112,451
-733,-92,434
-738,-69,426
-752,-41,416
-774,-10,412
-797,28,410
-818,75,404
-832,123,399
-842,168,385
-843,209,373
-835,243,357
-831,263,337
-828,274,318
-835,266,302
-856,240,288
-876,196,283
-896,141,282
-896,79,278
-885,13,278
-871,-56,274
-847,-138,269
-822,-231,264
-793,-331,261
-773,-422,254
-759,-506,252
-750,-567,253
-746,-607,255
-743,-621,265
-745,-603,279
-742,-557,292
-733,-491,309
-722,-421,324
-695,-341,332
-666,-253,333
-634,-166,321
-603,-82,305
-567,-8,276
-531,66,238
-492,123,192
-455,162,141
-405,194,79
-342,240,16
-279,272,-47
-216,335,-115
-150,375,-176
-95,405,-230
-40,437,-281
12,473,-324
68,509,-359
97,533,-381
114,559,-398
120,581,-406
112,590,-403
116,620,-375
88,652,-347
63,687,-308
38,720,-265
15,760,-221
-7,807,-170
-31,869,-128
-52,933,-79
-82,998,-34
-122,1069,0
-171,1139,32
-227,1203,56
-278,1254,75
-325,1305,89
-364,1350,103
-390,1374,111
-416,1390,117
-439,1391,116
-456,1392,115
-473,1387,104
-485,1387,93
-492,1399,69
-491,1420,45
-492,1453,25
-482,1496,-1
-475,1542,-24
-459,1591,-46
-450,1634,-70
-435,1671,-85
-437,1699,-98
-443,1718,-106
-459,1730,-114
-476,1725,-124
-492,1715,-131
-505,1702,-142
-519,1684,-152
-528,1671,-165
-521,1663,-183
-503,1663,-200
-478,1676,-219
-442,1690,-240
-404,1709,-258
-370,1743,-277
-340,1776,-293
-316,1811,-308
-295,1833,-318
-292,1849,-323
-295,1859,-325
-310,1869,-327
-331,1869,-332
-354,1872,-345
-370,1871,-360
-388,1871,-370
-402,1868,-389
-409,1872,-400
-412,1880,-411
-414,1894,-419
-414,1903,-424
-404,1913,-419
-399,1915,-414
-388,1914,-407
-382,1911,-396
-380,1893,-382
-383,1881,-366
-368,1916,-347
-379,2087,-339
-422,1916,-336
-419,1802,-312
-422,1759,-308
-421,1730,-307
-419,1730,-312
-388,1733,-324
-349,1759,-341
-305,1807,-358
-254,1871,-369
-193,1943,-388
-138,2018,-407
-85,2089,-422
-41,2158,-428
-25,2236,-440
6,2288,-413
19,2314,-425
21,2343,-427
25,2351,-438
38,2357,-450
49,2367,-460
76,2370,-476
124,2379,-489
187,2415,-511
267,2485,-539
335,2566,-571
404,2680,-599
451,2807,-619
486,2942,-629
503,3061,-637
472,3140,-634
389,3166,-637
264,3125,-642
117,3027,-660
-3,2928,-706
-95,2883,-781
-131,2914,-897
-122,3044,-1030
-67,3288,-1170
32,3618,-1298
151,4030,-1415
254,4527,-1495
320,5057,-1544
342,5551,-1561
325,5970,-1530
272,6294,-1467
172,6524,-1376
31,6674,-1271
-124,6759,-1179
-270,6773,-1099
-404,6743,-1024
-503,6696,-954
-562,6646,-882
-581,6575,-803
-581,6474,-719
-565,6339,-639
-541,6194,-556
-523,6042,-467
-530,5883,-374
-559,5699,-292
-588,5499,-245
-629,5299,-228
-685,5097,-244
-756,4921,-261
-838,4765,-284
-922,4628,-288
-992,4494,-283
-1034,4384,-265
-1048,4295,-230
-1036,4219,-187
-991,4130,-132
-934,4039,-75
-896,3947,-28
-873,3864,-1
-864,3787,18
-858,3704,30
-855,3601,32
-855,3472,14
-848,3338,-6
-842,3203,-32
-818,3069,-51
-779,2939,-57
-737,2815,-48
-705,2692,-17
-684,2577,19
-672,2456,61
-658,2336,100
-651,2211,127
-638,2089,137
-617,1986,134
-590,1906,113
-561,1847,92
-533,1795,64
-510,1746,44
-498,1697,26
-483,1642,21
-468,1588,26
-455,1533,32
-453,1486,46
-463,1447,57
-475,1410,74
-481,1362,94
-485,1305,110
-482,1233,129
-476,1164,138
-463,1093,152
-456,1020,163
-449,950,170
-439,880,176
-428,814,172
-407,755,169
-381,703,166
-356,659,162
-336,617,165
-324,577,170
-316,528,174
-314,474,184
-313,409,192
-304,318,200
-279,167,211
-235,-114,247
-172,-532,295
-124,-903,294
-110,-1077,238
-100,-1123,189
-83,-1104,150
-58,-1059,123
-36,-995,111
-7,-914,110
17,-817,110
43,-702,110
66,-577,109
85,-442,108
102,-304,103
111,-176,95
111,-60,80
110,34,62
98,94,40
85,81,33
71,-54,34
68,-313,58
59,-568,67
23,-690,35
-18,-714,0
-60,-694,-22
-93,-649,-21
-122,-600,-11
-151,-559,11
-176,-521,34
-199,-480,58
-210,-445,80
-214,-418,96
-209,-403,113
-200,-398,127
-186,-399,142
-171,-404,152
-158,-409,157
-150,-416,149
-149,-434,147
-155,-458,136
-169,-489,127
-186,-520,114
-200,-547,92
-209,-579,74
-221,-606,55
-223,-641,38
-219,-678,20
-212,-717,7
-198,-761,0
-179,-819,-3
-167,-879,-10
-160,-937,-9
-151,-993,-10
-154,-1047,-10
-156,-1087,-14
-157,-1118,-22
-156,-1136,-42
-145,-1142,-58
-118,-1153,-82
-91,-1160,-110
-63,-1169,-138
-42,-1187,-163
-31,-1206,-187
-28,-1226,-210
-27,-1243,-229
-25,-1268,-252
-19,-1279,-270
-14,-1280,-292
-4,-1267,-311
13,-1253,-318
28,-1224,-331
46,-1171,-337
63,-1109,-345
84,-1035,-347
96,-957,-343
112,-876,-337
122,-795,-323
136,-718,-307
154,-631,-287
176,-556,-258
212,-499,-220
255,-446,-181
303,-390,-145
350,-340,-104
406,-292,-70
465,-250,-33
516,-209,4
558,-170,42
585,-131,79
608,-96,119
615,-72,151
613,-49,186
601,-33,214
585,-20,242
563,1,264
538,26,277
512,42,279
487,61,276
459,79,270
433,86,260
400,90,243
359,91,228
310,86,213
258,80,200
205,70,191
155,68,180
103,69,164
57,76,146
11,84,127
-24,92,112
-51,103,98
-70,112,83
-84,115,69
-90,120,53
-85,119,40
-78,115,23
-63,108,12
-45,97,4
-27,89,-6
-3,82,-11
15,75,-16
39,68,-15
56,65,-17
70,58,-13
87,60,-7
93,59,4
102,61,9
110,59,13
115,68,19
119,79,23
118,87,27
113,100,27
111,112,29
102,126,32
99,132,31
92,132,28
94,125,29
91,119,28
85,108,24
74,104,15
60,92,15
45,81,12
31,72,8
16,59,10
1,48,11
-10,39,11
-24,32,8
-31,30,2
-39,26,-3
-43,28,-6
-48,29,-9
-51,38,-13
-54,46,-13
-57,53,-15
-57,63,-11
-57,70,-13
-59,76,-12
-61,85,-13
-61,88,-11
-59,90,-7
-58,85,-5
-56,87,-6
-56,87,-4
-52,87,-3
-51,82,-4
-45,81,0
-42,83,-3
-39,77,-3
-38,79,-5
-34,79,-6
-29,81,-9
-31,83,-6
-32,84,-9
-37,90,-5
-38,90,-4
-45,93,-3
-49,85,-3
-53,86,-1
-64,80,0
-70,76,-1
-75,72,-1
-84,64,-1
-87,56,-2
-92,53,-3
-96,49,-6
-98,50,-8
-98,51,-12
-96,56,-14
-92,58,-15
-93,64,-18
-92,73,-23
-90,78,-26
-90,87,-25
-93,100,-31
-90,117,-34
-86,135,-42
-76,144,-45
-69,148,-51
-53,146,-55
-38,147,-59
-23,148,-63
-8,142,-61
3,144,-61
19,143,-62
25,149,-61
34,158,-62
36,157,-61
40,166,-56
46,172,-52
44,181,-48
40,205,-45
40,205,-36
37,214,-32
36,210,-30
35,201,-33
42,202,-39
53,170,-41
61,159,-46
68,140,-51
80,116,-52
87,103,-54
96,66,-49
104,47,-50
105,43,-48
106,27,-42
106,40,-36
108,39,-29
98,66,-20
87,92,-12
72,126,-9
59,147,-13
40,172,-19
23,199,-30
10,212,-44
-6,224,-65
-14,229,-84
-24,228,-96
-30,221,-108
-34,208,-114
-34,190,-118
-33,163,-121
-25,103,-121
-16,53,-118
-10,26,-110
-8,0,-98
1,-7,-85
8,-6,-68
11,6,-50
11,24,-35
16,43,-21
16,71,-6
10,100,1
10,125,14
8,145,19
6,164,30
8,174,40
8,181,51
14,188,59
15,187,65
21,186,74
26,194,78
35,196,83
38,197,94
42,197,98
47,194,107
45,196,118
41,180,125
41,186,134
40,180,139
34,180,142
33,185,150
29,178,157
22,177,161
20,181,167
16,171,170
5,170,180
0,157,186
-6,157,188
-7,158,190
-5,159,182
-2,154,174
3,151,168
12,147,161
21,135,150
34,126,138
53,115,124
71,104,111
76,109,98
89,107,90
105,115,83
112,104,77
111,99,77
109,84,75
99,71,73
89,47,70
77,38,62
65,26,50
49,31,44
34,35,30
21,42,13
13,48,-4
4,53,-17
0,67,-26
1,77,-36
0,94,-49
-2,108,-59
-6,123,-67
-5,135,-77
-5,146,-83
-3,154,-81
2,154,-80
4,153,-73
10,147,-65
16,139,-54
21,125,-45
32,109,-30
36,87,-19
45,66,0
55,47,8
66,24,20
76,4,29
86,-13,36
95,-26,46
100,-36,57
101,-44,61
103,-57,65
104,-62,69
101,-66,70
100,-62,70
97,-59,67
96,-53,64
93,-44,55
87,-32,49
84,-23,43
82,-12,40
75,-2,33
75,0,26
73,0,20
71,-4,12
71,-5,3
71,-6,-1
72,0,-7
67,-3,-15
65,-4,-22
61,-8,-30
63,-10,-39
55,-11,-51
52,-17,-65
48,-20,-76
37,-20,-88
33,-21,-97
29,-19,-109
23,-10,-119
18,-2,-136
15,6,-150
12,19,-162
11,32,-178
12,45,-197
12,59,-216
11,76,-230
15,90,-227
19,98,-219
26,103,-225
39,110,-229
49,119,-237
59,132,-247
71,147,-252
81,161,-254
87,175,-255
97,183,-250
105,186,-239
107,184,-215
108,173,-190
110,154,-161
113,137,-132
113,115,-105
113,93,-82
112,76,-66
105,61,-51
98,50,-39
85,40,-23
72,37,-7
61,40,7
48,46,20
38,48,25
28,55,27
22,64,27
14,79,20
12,92,17
6,91,11
0,91,0
2,84,-5
-3,76,-14
-13,73,-23
-21,72,-30
-30,67,-36
-39,66,-45
-52,64,-51
-64,70,-59
-75,82,-63
-90,89,-65
-101,103,-67
-113,123,-71
-124,143,-74
-136,178,-75
-147,199,-75
-157,211,-70
-166,216,-66
-170,221,-64
-168,219,-60
-158,205,-56
-149,191,-45
-128,174,-39
-105,159,-28
-69,137,-15
-39,118,-2
0,100,10
36,86,22
67,58,36
92,-1,52
122,45,66
136,59,81
145,38,92
152,29,99
153,29,109
147,26,115
140,23,115
126,17,114
112,9,111
97,8,108
78,5,96
63,2,86
50,-2,75
37,-7,60
29,-10,49
25,-12,37
22,-13,25
22,-17,17
24,-19,11
24,-21,4
23,-23,4
26,-26,7
28,-30,8
27,-34,15
29,-41,22
31,-46,31
33,-51,40
33,-57,48
33,-68,62
33,-69,67
29,-74,78
27,-75,87
26,-76,92
24,-75,99
23,-73,103
23,-65,108
25,-63,111
24,-53,113
32,-47,115
41,-38,117
48,-32,122
51,-24,127
58,-22,132
66,-19,138
68,-12,139
73,-14,143
75,-14,147
75,-17,148
74,-20,148
72,-19,146
71,-15,141
67,-17,139
67,-16,141
65,-13,144
68,-12,148
65,-7,153
66,3,152
70,4,159
71,9,160
71,13,159
76,17,168
79,25,167
85,30,166
91,30,164
99,28,164
105,21,157
109,11,156
119,3,151
131,-7,149
140,-15,144
151,-31,142
157,-44,138
165,-59,133
168,-70,134
167,-81,128
171,-94,127
169,-96,126
167,-103,120
168,-111,115
163,-114,114
159,-113,103
159,-120,96
156,-118,92
150,-113,85
146,-107,85
141,-97,82
137,-89,81
129,-78,76
123,-68,76
112,-66,74
107,-66,73
96,-64,71
87,-69,68
81,-76,65
76,-84,62
68,-89,58
62,-84,50
53,-71,38
49,-64,31
44,-61,22
40,-52,6
27,-50,-5
25,-46,-14
13,-40,-24
2,-37,-31
-5,-29,-37
-16,-20,-39
-28,-13,-40
-36,-11,-39
-39,-13,-32
-46,-21,-26
-48,-29,-21
-47,-29,-14
-44,-30,-11
-32,-27,-12
-22,-19,-18
-15,-19,-31
-11,-23,-40
-11,-28,-49
-9,-33,-56
-15,-37,-60
-20,-45,-63
-28,-48,-63
-37,-50,-58
-44,-54,-57
-52,-57,-52
-53,-65,-52
-64,-72,-49
-67,-78,-47
-67,-79,-47
-73,-83,-47
-70,-86,-49
-71,-87,-44
-69,-89,-44
-65,-94,-44
-59,-88,-44
-51,-77,-42
-40,-59,-44
-26,-40,-53
-9,-18,-58
4,-1,-62
21,14,-76
29,27,-76
34,31,-77
35,35,-81
32,33,-79
25,32,-77
14,31,-74
1,22,-70
-12,14,-67
-28,8,-62
-36,-3,-61
-56,-7,-60
-66,-15,-50
-83,-14,-46
-97,-9,-42
-113,-5,-35
-120,2,-36
-127,9,-32
-128,18,-35
-121,25,-35
-108,33,-38
-96,41,-45
-84,51,-48
-70,59,-50
-66,183,-56
-58,114,-55
-53,81,-52
-61,58,-48
-68,48,-42
-63,67,-35
-73,62,-31
-77,61,-29
-84,52,-24
-88,36,-22
-90,22,-19
-89,10,-16
-83,-2,-13
-76,-12,-11
-71,-16,-5
-63,-22,-2
-48,-23,4
-40,-20,10
-24,-16,18
-11,-16,22
7,-14,26
22,-11,24
37,-6,22
50,-3,20
60,0,17
70,2,14
73,0,13
79,-3,14
79,-7,11
81,-13,10
75,-21,11
73,-25,15
68,-28,15
60,-32,19
54,-32,20
46,-31,17
42,-31,16
39,-32,18
37,-32,15
34,-28,18
32,-26,18
33,-24,16
32,-24,19
33,-27,22
37,-29,21
37,-26,21
39,-24,20
44,-27,20
43,-25,17
46,-23,18
48,-22,16
49,-20,16
47,-19,13
50,-20,13
50,-21,5
47,-20,4
44,-19,5
42,-20,5
40,-21,6
38,-16,2
34,-15,0
34,-16,2
31,-14,1
33,-15,4
29,-13,4
34,-16,8
32,-17,4
34,-16,3
32,-17,5
30,-12,4
29,-11,7
27,-11,9
23,-14,11
20,-12,12
17,-17,13
16,-19,15
13,-19,16
11,-19,19
7,-18,17
11,-16,17
12,-9,12
16,-12,15
20,-12,13
23,-11,10
24,-8,12
26,-11,9
20,-8,7
16,-5,4
11,-3,9
7,-3,7
0,0,6
-4,0,3
-13,0,1
-16,-4,3
-20,-2,4
-25,-5,0
-30,-5,1
-33,-7,1
-33,-8,0
-37,-12,3
-37,-10,4
-37,-10,2
-35,-10,3
-35,-7,5
-32,-14,7
-30,-14,8
-25,-10,8
-19,-10,7
-15,-9,6
-9,-7,8
-6,-3,4
2,-3,6
5,-3,9
7,-1,9
8,-3,10
10,-4,12
8,-10,13
14,-13,17
17,-15,15
16,-17,16
17,-20,17
18,-18,18
19,-16,14
16,-17,14
16,-13,11
12,-14,7
10,-11,3
6,-12,2
4,-6,2
2,-5,3
-1,-4,2
-4,0,1
-4,1,3
-9,7,0
-7,8,-1
-9,12,-2
-11,13,0
-13,13,0
-13,11,-2
-13,13,-3
-10,13,-1
-9,12,-8
-7,13,-14
-5,14,-20
-5,15,-20
-7,15,-19
-5,17,-24
-5,17,-22
-3,17,-15
-3,18,-11
-5,18,-8
-3,23,-2
0,25,4
-1,30,9
0,34,15
1,34,20
7,34,23
11,30,26
16,25,26
23,18,32
27,15,31
33,10,29
33,6,28
40,-1,30
42,-5,28
46,-6,28
48,-7,24
51,-10,20
57,-10,15
55,-6,11
55,-4,8
59,-5,1
60,-3,1
61,-6,2
64,-3,2
66,-2,4
62,-5,5
68,-8,10
67,-4,14
69,-6,12
69,-6,19
66,-6,18
69,-9,22
66,-12,19
65,-12,19
65,-17,20
65,-17,18
60,-21,21
61,-21,18
53,-21,20
53,-17,18
49,-18,18
49,-12,13
45,-11,13
39,-5,11
31,-4,7
26,3,7
19,8,8
13,12,9
7,12,6
1,15,7
-6,11,8
-10,9,9
-11,10,9
-10,5,8
-9,7,6
-4,7,5
3,5,5
8,4,4
15,2,5
17,1,3
23,-1,2
24,-5,5
21,-5,1
19,-10,3
14,-9,1
10,-13,2
3,-12,3
-3,-10,0
-8,-8,1
-13,-7,5
-14,-5,4
-18,-6,5
-19,-3,3
-17,-3,2
-19,-3,3
-14,0,1
-13,1,-2
-10,1,0
-7,3,-3
-4,0,-2
1,4,0
0,2,0
5,0,0
9,-1,5
12,0,3
15,-5,2
17,-6,1
17,-8,3
22,-9,6
21,-11,3
21,-11,0
23,-9,1
20,-7,-5
21,-8,-5
20,-7,-6
21,-7,-5
21,-6,-6
18,-10,-7
14,-9,-9
8,-9,-7
10,-14,-4
5,-14,-5
4,-13,-4
2,-10,-2
2,-13,0
3,-10,-2
1,-5,0
4,-3,-1
8,-2,-1
8,0,-2
10,2,-3
11,3,-1
9,0,0
8,2,-5
7,1,-5
6,0,-5
5,0,-5
4,0,-5
6,0,-5
4,-2,-4
3,-3,-4
4,-6,-4
4,-6,-5
4,-6,-5
5,-4,-5
2,-3,-6
6,-5,-5
2,-3,-4
0,0,-6
1,-2,-7
4,-2,-6
3,-2,-4
3,-2,-7
3,-2,-5
4,-2,-4
2,-3,-3
6,-5,-3
6,-4,-1
6,-4,-2
5,-4,-4
5,-5,-2
5,-3,-3
1,-3,-3
5,-2,0
-1,-1,0
-3,-1,-5
-4,-5,-3
-5,-4,-2
-6,-2,0
-6,-6,0
-8,-3,-2
-6,-9,-2
-5,-7,-1
-5,-8,0
-4,-6,1
-4,-7,1
0,-11,1
0,-12,3
-2,-13,5
0,-14,3
2,-14,5
3,-12,4
4,-11,4
4,-9,5
2,-8,4
3,-6,5
4,-9,8
5,-6,9
7,-6,6
5,-6,7
8,-7,3
9,-8,5
9,-6,3
10,-9,2
11,-12,3
11,-14,5
10,-11,5
12,-15,5
15,-13,6
16,-9,4
19,-9,3
18,-8,5
18,-4,1
17,-7,4
11,-3,1
9,-5,1
6,-4,4
2,-2,5
-6,0,7
-12,2,7
-12,5,7
-7,5,6
-2,5,2
6,7,4
15,5,1
22,6,1
31,2,1
32,3,3
33,0,7
31,-5,6
29,-11,6
24,-15,12
14,-15,14
10,-18,17
4,-16,16
1,-14,18
0,-12,16
-2,-10,16
-5,-8,14
-6,-5,13
-7,0,12
-9,1,11
-7,3,7
-5,5,5
-3,7,2
0,4,3
0,4,0
1,2,4
7,0,3
7,-1,2
8,-6,8
10,-11,5
10,-12,3
10,-15,4
9,-13,0
10,-13,0
10,-16,4
10,-17,2
8,-14,-2
6,-13,-1
3,-10,-1
-1,-7,-3
-3,-4,-4
-7,0,-1
-9,3,0
-11,4,1
-17,4,1
-18,8,3
-21,5,3
-17,5,3
-14,6,3
-10,3,7
-6,4,5
-6,7,4
1,6,4
6,5,6
4,4,7
4,0,11
3,2,8
4,2,7
5,0,10
3,0,9
0,1,5
0,2,7
-1,3,10
0,2,6
1,2,4
0,3,5
0,7,5
0,6,5
2,6,5
6,5,4
8,1,3
9,-1,1
10,-1,3
10,-1,2
11,0,2
13,-2,-1
11,-4,1
11,-4,4
8,-6,2
11,-7,0
11,-7,0
8,-5,0
10,-5,0
11,-4,-4
8,-2,-3
7,-3,2
5,-3,-2
3,0,-3
2,-1,0
-3,2,0
-3,1,-1
-3,2,0
-6,5,-1
-4,9,-5
-5,6,-4
-3,8,-3
-3,4,0
-1,2,0
-3,4,2
1,1,0
1,-1,3
1,1,2
4,1,5
4,-1,3
4,-2,7
4,-2,5
1,-2,6
5,-2,7
3,0,8
2,2,9
4,5,7
3,7,6
4,8,5
4,6,1
1,6,4
5,3,7
5,0,6
7,2,2
11,-4,7
8,-2,5
9,-3,6
9,-1,4
12,1,5
9,-1,8
13,3,3
12,0,6
12,5,3
14,6,1
13,4,-1
13,6,-5
14,6,-4
3,7,0
4,7,-2
-6,4,-1
-7,2,2
-12,-1,4
-15,3,2
-16,1,3
-12,6,2
-6,7,0
0,9,-5
12,8,-2
21,8,-2
23,6,-3
22,4,0
17,3,1
16,-3,3
10,1,4
6,-1,7
2,-2,7
-3,-1,5
-7,-3,8
-10,0,6
-9,2,8
-8,4,5
-5,6,3
-1,5,1
-1,8,-1
5,8,-1
7,8,-4
8,6,1
11,3,0
12,2,0
14,0,1
14,-2,0
13,-4,1
12,-7,-1
11,-6,0
10,-9,0
9,-12,2
10,-9,2
9,-8,4
10,-6,4
7,-8,6
8,-9,3
10,-7,3
5,-1,0
7,-3,0
2,-1,-1
0,1,1
0,1,1
-3,1,3
-6,0,3
-9,-1,3
-5,1,5
-6,-1,4
-7,-3,4
-3,0,3
0,0,5
5,1,2
9,2,5
11,3,6
14,6,10
14,6,8
13,3,6
13,1,6
10,4,5
10,0,5
13,3,6
9,2,3
10,2,5
11,5,3
15,1,4
12,1,0
11,0,0
14,0,0
15,-5,1
11,-2,-1
14,-3,0
8,-5,-1
9,-5,0
8,-8,0
4,-2,0
2,-9,3
5,-2,0
6,-1,-1
5,0,-2
5,1,-2
7,0,-3
9,1,-2
5,-1,-3
7,0,-4
8,0,-3
6,0,-3
8,-4,-1
4,-4,-3
4,-3,-2
5,-8,-3
2,-5,-3
1,-7,-2
0,-5,2
-2,-2,0
-3,-2,0
1,-2,1
-1,1,1
0,0,0
0,1,2
0,0,2
0,3,0
0,5,1
0,2,0
4,3,1
3,0,2
4,2,6
1,2,-1
4,2,3
4,0,1
2,0,4
2,-3,2
1,-4,4
2,-4,4
5,-4,3
5,-5,3
5,-1,3
10,0,5
7,0,2
10,2,4
9,0,5
9,3,6
5,4,4
9,1,0
11,3,-1
11,3,0
12,5,-4
11,4,-4
5,4,-4
2,6,-4
-2,5,0
-7,2,1
-14,2,2
-13,1,4
-12,0,3
-7,0,3
1,1,-1
9,1,0
22,4,-2
29,7,-3
30,9,-1
32,8,2
28,9,2
26,5,7
20,6,6
10,6,12
4,7,12
0,7,10
-7,10,14
-11,7,11
-11,12,6
-12,10,9
-12,9,6
-7,10,2
-4,8,0
-1,6,-1
3,4,0
4,4,-3
7,2,-1
9,1,0
9,0,0
7,0,0
9,-4,4
9,-4,4
9,-6,5
7,-9,5
5,-8,7
7,-12,5
8,-11,4
8,-10,3
8,-10,2
4,-8,1
7,-8,-1
6,-5,-1
5,-3,-2
4,-6,-5
6,-2,-3
2,2,-4
0,0,-3
-3,0,0
-4,0,0
-2,3,0
-4,2,-2
-5,2,-5
0,0,-1
2,3,0
6,7,-2
10,7,-1
11,7,-2
9,5,1
11,5,3
9,1,1
6,1,2
2,-2,6
0,-1,4
-4,-2,5
-6,-2,6
-11,-2,4
-9,0,1
-11,2,1
-9,1,-4
-5,7,-3
-3,8,-5
-1,6,-7
0,6,-6
4,5,-7
4,2,-9
9,1,-5
10,-4,-3
10,-5,-1
10,-6,-1
7,-11,0
6,-9,-3
6,-11,-2
8,-11,0
8,-9,1
6,-5,-1
7,-4,2
6,0,-2
7,3,-1
5,4,-2
3,4,-1
1,3,-1
1,3,-2
-2,4,0
-2,5,-1
-6,6,-1
-8,3,-3
-10,4,0
-9,3,-1
-8,0,0
-7,0,0
-8,0,0
-7,-1,4
-6,0,4
-9,-1,1
-8,-2,2
-7,1,4
-4,0,7
-7,5,5
-5,6,2
-7,6,2
-4,5,4
-3,5,0
-1,6,2
0,6,3
2,4,-1
3,3,0
2,5,0
4,2,0
7,0,3
3,1,1
3,0,0
1,0,4
5,-1,4
3,-2,1
5,0,3
3,-4,4
4,-1,5
4,-1,5
6,0,3
7,1,6
7,5,3
9,5,2
7,7,2
11,11,1
9,9,0
9,11,-2
3,9,0
1,10,1
-2,6,0
-9,4,4
-16,4,5
-17,3,7
-20,6,7
-16,6,6
-10,10,5
0,10,3
7,9,4
16,10,4
24,10,6
28,7,7
31,6,5
33,2,6
30,0,9
25,-1,8
20,-3,7
14,-4,5
10,-6,7
2,-3,8
0,-2,8
-2,1,4
-3,0,4
-5,1,2
-3,0,0
-5,1,1
-1,4,-1
-1,5,-3
-4,4,-2
-4,4,-1
-3,4,0
-3,1,-1
-3,0,0
-3,-3,0
0,-3,1
2,-3,3
1,-6,2
2,-8,-1
7,-6,3
8,-11,2
9,-7,0
12,-10,-1
10,-9,1
9,-8,-1
11,-4,-3
12,-4,-2
10,-1,-1
10,-4,-2
8,1,0
7,-1,0
5,-2,1
2,-4,1
0,-3,2
1,-3,3
3,-4,3
2,0,5
1,1,0
6,0,4
9,6,1
16,6,2
19,8,0
21,9,0
19,7,0
22,4,0
19,3,0
17,0,0
12,0,0
11,0,2
9,-3,2
6,-2,0
5,-4,1
5,-3,5
1,-1,1
3,0,3
2,2,4
5,3,0
2,4,0
3,8,0
5,4,1
3,7,0
3,6,2
6,4,-2
6,2,1
3,3,2
6,2,4
5,1,7
3,1,11
4,1,11
5,4,12
3,5,18
5,8,16
4,11,18
6,13,15
6,15,16
8,14,19
13,19,18
11,16,17
17,14,20
23,15,22
24,15,20
30,13,22
33,15,25
34,12,27
38,13,26
41,10,32
45,10,31
46,10,32
47,8,32
45,11,28
46,3,26
44,6,24
43,4,23
40,0,19
42,0,18
35,-1,14
32,0,12
29,0,10
30,-3,10
30,-4,5
24,-4,2
22,-3,3
15,1,2
16,0,0
13,2,1
9,4,0
8,4,2
5,4,0
1,7,1
0,3,-2
0,2,-3
-2,-1,-1
-4,1,-3
-7,0,-4
-10,0,-6
-8,-4,-6
-9,-2,-6
-12,-3,-6
-14,-3,-7
-13,-3,-8
-13,0,-7
-12,1,-12
-10,0,-8
-11,0,-8
-11,2,-9
-10,5,-8
-8,2,-3
-9,2,-6
-6,3,-5
-5,3,-8
-4,1,-5
-6,2,-8
-2,2,-6
-1,-1,-2
-1,0,-6
0,0,-4
1,-1,-3
0,0,-1
2,0,1
2,-2,0
7,2,3
5,2,1
9,0,3
7,-2,3
11,-1,3
9,2,2
12,2,0
9,2,1
8,3,-2
11,0,0
13,0,-4
12,0,0
15,-2,-1
11,-1,-1
14,0,0
12,-2,2
13,-4,-1
12,-1,-1
11,1,-5
8,6,1
6,4,-4
4,5,-2
-1,7,-2
-6,8,-3
-9,7,-1
-16,7,0
-20,6,1
-23,8,2
-25,13,1
-20,15,1
-12,16,1
-8,17,-2
0,15,1
5,15,-1
13,11,0
16,8,0
16,4,2
16,2,3
19,1,4
18,-5,5
13,-4,7
14,-3,9
11,-3,5
10,0,11
9,0,13
10,2,10
10,5,12
9,5,11
10,5,14
10,8,15
11,6,16
8,8,18
9,7,15
9,5,14
11,4,12
10,2,9
12,-1,7
16,-4,6
16,-3,4
15,-6,5
17,-7,3
15,-8,1
18,-5,0
19,-8,0
17,-8,-1
15,-5,3
13,-2,1
14,-3,4
8,0,2
9,-1,4
6,-3,2
6,0,2
5,0,3
5,0,3
4,0,4
2,1,4
1,0,3
1,0,1
2,0,1
3,0,1
3,0,0
4,0,0
6,-1,3
7,0,0
11,2,2
12,2,0
11,2,3
12,0,4
12,2,3
11,1,5
10,0,7
9,0,6
8,-1,7
8,2,9
6,0,7
7,0,8
11,1,7
11,5,3
13,6,4
14,3,4
13,4,1
13,3,3
13,0,2
11,-2,1
15,-3,4
15,-4,1
14,-3,3
14,-4,5
14,-5,2
11,-7,3
13,-7,3
10,-6,1
13,-6,2
9,-7,7
9,-6,4
8,-4,2
6,0,4
4,-1,4
1,0,3
-1,3,0
-1,2,0
-1,2,-3
-6,2,-2
-6,3,-2
-1,2,-6
-5,2,-4
-4,1,-4
-1,0,-5
0,0,-1
1,-2,0
1,-2,2
1,-5,3
2,-8,3
0,-4,6
4,-5,7
5,-6,9
3,-4,8
4,-1,7
6,0,9
5,2,7
8,0,8
7,3,7
7,3,5
9,6,2
11,5,2
10,4,3
14,4,1
14,1,3
11,3,3
14,3,3
13,3,3
17,0,4
13,0,3
12,0,6
12,-1,3
13,-1,5
11,-1,3
9,-1,4
9,-3,3
6,0,2
5,1,3
3,1,3
2,1,4
2,0,2
1,1,2
0,-1,3
-2,1,2
-4,1,6
-4,1,4
-3,-1,7
-4,0,9
-5,1,8
-4,2,7
-3,0,7
-2,1,7
-2,3,8
-1,2,4
-2,4,5
0,2,1
1,1,3
1,1,3
1,-2,4
4,-2,7
4,-2,6
2,-3,11
3,-3,10
5,-2,8
5,-2,9
6,-1,9
7,-4,7
11,-7,10
11,-5,8
13,-5,7
13,-3,6
12,-2,6
9,0,3
10,1,8
12,4,3
10,8,3
4,8,4
2,7,5
-2,8,3
-6,4,2
-7,5,3
-10,4,1
-13,5,2
-16,4,7
-13,3,7
-13,6,8
-6,7,9
2,8,7
10,9,6
17,9,5
26,8,6
27,7,3
30,4,4
30,0,3
30,-1,4
24,-4,5
21,-7,2
16,-8,0
12,-8,3
5,-3,2
4,-4,4
-1,0,6
-2,1,8
-2,4,7
-2,4,8
-1,2,5
-7,5,5
-3,6,0
0,2,-3
-2,3,-2
-1,1,-2
0,-3,-1
-1,0,-3
0,-5,-2
-2,-4,-4
-3,-5,-2
-3,-7,-2
-2,-8,-3
-4,-8,-1
-3,-6,2
-3,-2,-2
-1,-2,-1
0,0,-4
-4,1,-2
-1,3,-4
0,2,0
-1,1,-2
-3,0,-1
-1,-2,-1
-1,-2,0
-2,-2,0
-2,-3,0
0,-4,0
-2,-3,1
0,-4,-3
-1,-7,0
-1,-5,3
2,-3,4
2,0,5
4,0,4
10,1,3
14,0,1
17,1,4
16,0,2
16,-2,1
16,0,3
13,0,2
13,0,5
11,-2,0
7,-4,2
7,-2,4
5,-2,3
5,-2,3
3,-1,6
3,1,4
2,0,3
2,3,1
2,4,1
5,2,1
5,1,4
10,3,2
10,-2,4
10,-2,3
10,-3,6
11,-5,6
11,-6,9
9,-5,7
10,-7,10
13,-8,8
11,-7,5
12,-9,7
11,-8,7
9,-8,3
7,-5,4
7,-6,4
5,-4,5
3,-4,3
-2,-2,0
-2,-3,5
-3,-2,5
-3,-2,3
-8,-2,3
-4,0,4
-7,1,4
-5,0,5
-2,0,7
-5,0,5
-2,1,1
-3,1,8
-3,1,6
1,0,4
1,-3,6
0,-5,5
3,-1,1
1,-2,4
4,-3,5
5,0,5
6,-1,5
4,-3,6
6,-4,5
5,-1,5
5,1,6
6,0,6
7,0,8
5,0,8
2,1,7
3,1,5
5,0,8
4,3,3
5,1,4
8,-3,6
9,-6,5
9,-6,3
10,-5,3
11,-4,2
10,-1,3
11,0,0
11,0,2
9,-2,1
9,-2,6
8,-1,4
7,-1,2
4,-2,3
6,-3,4
3,-1,4
5,1,4
2,0,5
3,2,3
0,-1,1
1,0,2
1,-2,2
1,0,1
3,-3,3
0,-1,1
2,-5,4
0,-4,2
0,-2,1
0,-6,4
3,-3,5
1,-1,5
1,-1,3
0,-3,3
4,-3,3
2,1,1
0,1,1
2,-1,4
4,-1,3
6,0,2
8,2,2
8,1,1
9,6,0
5,7,-2
0,9,-4
0,5,0
-7,7,2
-11,7,3
-16,5,7
-16,3,8
-17,4,7
-11,8,8
-4,8,6
6,6,4
17,5,4
26,5,3
30,4,4
33,1,6
33,1,5
33,0,6
30,0,7
21,-2,8
15,-3,7
13,0,8
3,0,4
0,-1,5
-1,1,5
-5,1,4
-6,1,2
-6,4,2
-5,4,6
-4,8,2
-3,6,2
-1,2,-1
1,1,2
2,-1,0
0,0,-2
0,-2,-2
0,-5,-1
0,-6,2
1,-6,1
3,-8,0
4,-9,1
4,-8,-1
7,-9,0
7,-10,-1
9,-8,0
7,-8,-2
8,-7,-1
6,-5,2
6,-5,1
5,-2,-1
8,-4,2
7,-2,5
3,-2,7
0,-2,5
0,0,4
0,1,2
-3,1,6
-3,5,6
-2,2,6
0,3,4
2,1,6
7,3,2
9,2,5
11,4,2
12,3,3
10,6,6
9,3,4
8,5,5
6,7,7
1,6,5
-1,5,6
0,4,8
-3,7,8
-7,9,3
-3,11,6
-4,11,1
-4,8,2
-3,9,0
1,9,2
1,8,-1
3,9,-3
5,7,-1
8,6,-3
10,7,0
14,9,0
14,7,0
14,7,4
13,5,4
17,2,6
20,-2,4
13,-5,4
13,-10,-2
16,-8,-1
14,-8,0
13,-4,-5
12,-3,-4
7,0,-7
8,0,-4
6,-3,-5
2,0,-1
1,2,-3
1,0,-5
1,-1,-5
-3,0,-1
-5,-3,-2
-4,0,-2
-5,-3,-2
-3,-2,0
-4,-2,-3
-1,-3,0
-1,-1,-1
3,-5,2
3,-3,0
5,-2,1
3,1,1
3,3,3
2,-1,1
1,1,1
1,0,2
1,2,2
-1,1,3
-1,2,2
-2,1,0
1,3,2
0,0,1
2,-2,1
3,0,0
0,1,0
2,1,-1
2,1,0
1,4,-2
3,1,0
3,3,-3
1,-2,-4
0,-2,-5
0,-4,-4
-4,-2,-5
-2,-4,-5
-7,-4,-6
-7,-4,-3
-9,-5,-4
-9,-6,-3
-13,-6,-1
-13,-3,1
-15,-4,1
-17,-1,0
-20,2,-1
-19,1,-2
-19,3,-2
-15,5,0
-13,5,0
-13,5,-4
-9,5,-5
-7,6,-9
-7,7,-10
-8,6,-10
-10,4,-6
-16,4,-6
-20,1,-5
-21,1,0
-19,-2,1
-17,-1,1
-11,-1,4
-5,0,1
3,0,2
15,0,0
27,0,0
34,2,0
38,0,6
41,0,12
36,-1,13
34,-2,14
31,-2,13
22,0,15
18,-2,15
11,-5,14
7,-1,12
2,1,9
3,1,6
6,6,3
5,4,1
4,3,2
5,5,0
9,1,-1
10,0,0
9,0,0
9,1,-1
11,-4,0
12,-7,2
11,-8,3
14,-11,2
11,-10,2
14,-10,0
10,-7,2
10,-10,1
9,-9,1
8,-6,1
5,-6,1
7,-4,1
6,-4,1
3,-4,0
5,-5,0
4,-4,-1
1,-2,0
-3,-2,1
-6,-2,2
-6,-4,1
-8,1,5
-10,-1,4
-11,2,5
-8,-1,7
-9,0,6
-3,-1,7
1,-1,6
8,2,1
9,4,6
16,3,7
16,4,3
19,3,3
17,0,7
17,0,10
17,2,8
19,1,11
19,2,9
17,2,9
14,0,8
14,1,6
13,-3,4
18,-4,4
17,-1,1
17,0,0
18,0,1
16,-3,3
17,1,1
18,-1,0
17,0,0
20,-1,-1
18,-2,1
17,-7,-1
14,-4,-3
15,-4,-3
14,-7,-1
11,-3,0
10,-3,-2
11,-3,-2
8,-3,0
7,-3,-2
4,-3,-5
2,-2,-1
0,-3,-4
-3,-2,-4
-4,2,-5
-6,-1,-3
-11,3,-4
-15,7,-8
-16,8,-5
-18,7,-4
-21,10,-3
-22,12,-3
-18,9,-6
-19,8,0
-21,9,-1
-18,6,0
-15,4,-1
-14,1,1
-13,1,3
-10,0,5
-8,-2,6
-6,0,3
-3,-3,5
2,-2,4
3,-1,2
4,-1,4
3,0,0
4,0,2
6,2,0
3,0,1
4,2,2
3,1,1
6,2,2
5,0,2
4,0,2
6,-3,0
6,-6,3
8,-5,2
10,-5,0
10,-9,0
10,-7,1
14,-5,1
11,-5,0
10,-5,2
10,-3,2
7,0,0
10,1,1
9,5,-5
10,7,-10
5,9,-7
2,11,-5
-4,13,-7
-7,7,-5
-16,8,-6
-21,5,0
-23,1,3
-22,0,2
-23,-1,3
-14,-3,3
-3,-1,-1
5,2,-2
14,0,-2
24,3,-3
29,0,-3
33,-1,5
32,-3,4
27,-3,5
23,-5,10
19,-4,11
11,-2,10
3,-1,12
-2,-1,7
-7,3,9
-9,1,7
-9,3,5
-11,5,0
-9,4,1
-8,5,-1
-5,2,0
-4,4,-6
-2,1,-8
0,1,-6
-2,-3,-4
0,-6,-6
1,-8,-4
0,-9,0
-2,-8,-2
-1,-9,-4
0,-9,1
1,-9,0
2,-9,0
0,-8,-2
2,-9,-2
1,-7,-3
5,-7,-1
4,-3,-3
4,-3,-7
4,-4,-6
2,-3,-4
5,-2,-4
5,-3,-2
6,-2,-2
3,0,0
1,4,-3
3,4,2
1,4,4
0,4,3
1,5,5
2,6,7
5,8,9
8,7,5
13,8,6
14,9,3
19,8,3
20,7,4
22,6,7
19,3,7
17,1,6
12,-1,6
13,0,6
12,-2,4
6,-3,5
3,-1,6
3,-1,6
2,-2,5
3,0,4
3,3,2
6,4,0
4,5,1
3,5,1
2,6,0
4,3,1
6,1,2
6,1,-1
4,-1,0
5,0,1
6,-2,0
4,-1,-2
4,-2,-1
6,-2,0
3,-2,0
4,-3,-1
3,-1,-3
3,-1,0
2,0,0
1,2,0
1,1,0
1,3,0
0,3,0
-2,2,2
0,2,0
-2,1,1
-1,7,-2
0,2,0
0,3,3
-4,5,0
1,7,-1
0,-2,1
1,-3,3
2,0,3
2,-1,1
1,0,4
3,-1,3
3,1,5
4,-1,2
3,0,2
4,0,2
3,2,1
3,3,0
3,1,0
3,2,0
7,2,1
4,4,-3
4,2,-2
4,3,1
3,3,1
1,2,1
1,2,-2
0,0,2
1,2,1
-4,2,-1
0,2,2
0,3,-1
-2,4,-3
0,2,0
0,3,-3
4,1,-2
2,2,-2
3,2,-3
3,2,-1
5,0,-3
3,1,-2
8,2,-3
9,1,-1
6,0,1
5,1,-1
7,-1,2
7,0,1
9,1,0
8,3,-1
7,3,0
8,4,-1
7,5,-3
4,9,-3
3,8,-3
-3,10,-4
-4,12,-1
-7,9,-1
-10,7,1
-15,8,4
-14,7,4
-13,7,7
-13,7,7
-4,9,6
3,9,0
11,9,0
21,7,2
27,5,2
30,5,0
33,1,4
31,-2,3
31,-1,5
28,-5,6
23,-4,7
19,-1,6
12,3,6
11,-2,5
8,0,8
2,2,8
3,1,4
1,2,3
-1,4,1
-2,4,0
0,3,-1
-1,1,-1
0,3,2
-2,1,0
-2,1,1
0,2,0
0,0,2
0,-2,0
0,-3,3
2,-7,0
4,-5,0
4,-7,0
2,-5,0
5,-4,-2
5,-5,0
3,-5,1
3,-5,-1
4,-3,2
3,0,1
4,-1,1
5,0,4
4,2,0
4,2,2
4,2,3
6,1,0
5,1,-1
4,-1,2
2,-1,4
3,-4,1
1,0,4
3,0,5
2,6,4
6,5,5
5,7,5
5,6,1
12,7,2
13,4,0
13,3,-1
12,0,3
12,-3,2
12,-2,4
7,-6,4
6,-6,2
3,-2,1
1,-1,1
1,0,2
0,2,0
-1,4,1
-2,3,0
0,5,1
3,4,3
4,4,3
4,5,2
9,1,1
8,-1,0
6,-2,0
7,-4,-1
8,-1,1
7,-3,1
7,-1,-2
6,0,0
6,1,-5
8,2,-1
6,2,-4
5,2,-1
6,2,-3
3,3,-3
7,5,0
4,7,1
3,6,0
3,9,-1
1,7,-4
3,5,-3
0,6,-3
1,5,0
0,2,2
0,3,-1
-1,3,1
0,0,0
0,0,3
2,0,4
2,-3,4
3,0,5
2,-1,8
5,1,5
5,2,3
6,1,7
8,3,6
9,2,6
9,4,3
10,2,2
10,6,6
10,5,3
10,4,3
9,3,1
11,2,3
6,5,0
10,1,3
7,2,3
9,2,0
6,2,0
4,0,0
8,1,-1
5,0,-1
4,3,1
4,-1,0
3,4,0
0,2,0
0,2,0
-1,2,0
-2,1,0
-2,2,0
-3,3,1
-2,2,-1
0,4,-2
-1,1,-2
-3,4,-2
-2,4,0
-3,3,0
-4,4,1
-2,5,-1
0,4,0
0,2,2
0,1,-2
3,1,3
0,0,3
2,-1,3
1,0,1
5,1,5
8,1,6
5,2,4
6,3,2
6,1,3
8,0,2
7,4,1
11,3,3
9,2,7
9,5,1
9,3,4
9,4,5
10,4,2
8,5,5
9,3,4
8,3,3
7,2,5
9,1,5
9,-1,2
10,-3,1
11,-2,1
8,-1,0
9,1,0
8,2,0
9,1,0
10,2,0
10,4,-1
5,5,-5
5,4,-4
1,4,-4
-2,6,0
-5,3,-2
-12,9,-2
-16,10,0
-17,9,2
-20,11,3
-18,11,3
-18,13,3
-11,13,5
-7,13,4
1,11,3
14,9,6
15,9,2
25,8,3
27,6,6
32,4,2
30,3,3
28,6,3
29,1,3
24,4,4
21,4,3
16,2,5
11,2,8
8,-1,10
7,3,11
4,1,10
1,1,7
1,-1,10
2,-1,7
-1,0,5
2,-3,8
2,-1,5
0,-1,3
0,-2,3
0,1,0
-1,-5,0
-1,-2,-1
1,-5,0
-1,-7,-2
2,-8,-1
2,-8,-1
0,-8,-2
0,-8,0
1,-10,0
0,-3,0
0,-4,0
-3,-2,-2
1,0,4
-2,0,2
-2,0,1
0,-1,0
1,-2,-4
1,-2,-1
3,0,-1
0,-2,-4
1,-2,-4
3,-5,-4
2,-3,-4
4,-6,-5
5,-3,-2
5,-5,2
6,-1,2
8,-3,0
10,1,2
13,1,1
14,2,0
15,1,2
10,2,3
12,3,2
11,2,2
8,0,3
7,2,5
6,-1,3
3,-2,4
4,-4,4
2,-2,1
3,-2,3
2,0,0
2,0,0
4,0,2
3,0,0
3,-1,3
3,0,0
4,-2,2
4,0,-1
4,-1,0
6,-1,0
5,-5,0
6,0,0
8,-4,-3
5,-2,-3
6,-4,-1
5,-6,-1
3,-4,-1
4,-1,-2
5,0,-1
2,3,-4
-1,1,1
-5,4,-1
-3,2,-1
-4,2,-1
-6,0,-2
-9,3,0
-9,3,-3
-10,1,-3
-7,1,-3
-9,2,-3
-9,3,-1
-6,4,1
-6,3,2
-5,4,1
-4,4,1
-4,2,3
-2,4,1
-2,4,3
1,2,2
3,4,6
4,2,5
4,3,3
4,3,5
6,6,5
3,4,4
2,5,2
5,3,2
7,2,5
5,5,3
5,2,6
5,2,0
5,0,3
2,0,1
3,0,-1
4,-2,2
3,-4,0
2,-2,1
0,-4,2
1,0,2
-1,-2,1
1,-1,-1
1,-1,2
1,0,-2
4,0,2
2,-1,0
0,0,-1
0,0,0
0,0,3
-1,0,1
-3,2,3
-1,-1,3
-2,-1,4
-1,-3,0
-3,-2,3
-1,-4,3
-1,-4,4
1,-2,5
-1,-3,3
0,-4,3
0,-1,1
0,-1,2
0,1,3
2,3,4
2,-1,2
5,-2,1
8,-2,4
6,-3,3
7,-1,5
9,-3,3
11,-3,8
9,-4,5
9,-2,6
10,-3,7
7,-1,9
8,-2,6
9,-1,3
4,-1,5
6,2,2
6,-2,4
5,-3,3
5,-2,5
3,-6,4
6,-4,4
6,-2,3
7,-4,6
7,-1,7
9,-3,5
7,-3,6
12,0,5
6,0,2
6,0,1
1,3,1
-3,3,-1
-5,4,0
-8,2,3
-15,4,3
-15,7,5
-18,6,4
-15,6,5
-9,8,6
-3,9,5
4,9,2
18,6,4
25,5,6
32,1,4
33,0,5
38,-5,7
34,-7,9
30,-10,12
25,-11,8
18,-6,11
13,-7,13
8,-3,9
6,-2,14
3,0,12
-2,-1,6
-2,2,7
-5,2,4
-2,0,6
-2,2,3
-6,3,-3
-4,4,0
-3,0,0
0,-1,0
-2,-2,0
0,-4,3
-3,-4,0
-1,-6,0
1,-8,0
1,-9,0
1,-11,0
2,-14,-2
1,-12,0
4,-10,2
4,-6,-2
4,-7,-1
3,-3,-2
3,-5,-4
2,0,0
1,0,-1
0,-3,-1
1,0,-1
0,0,-2
2,1,-1
0,-2,0
-2,0,0
-5,2,1
-4,0,1
-7,2,2
-6,4,5
-4,1,4
-3,7,3
0,10,5
8,14,1
10,15,3
17,16,6
18,16,7
20,19,5
22,14,7
22,17,8
21,15,5
19,13,8
18,12,10
17,9,11
16,5,12
15,7,8
14,6,11
13,6,13
16,8,12
19,6,11
18,4,11
20,6,11
21,5,10
20,6,8
20,2,9
24,1,8
21,0,10
22,-4,5
15,-4,7
17,-5,6
17,-5,5
13,-2,2
15,-6,1
13,-6,0
12,-6,-2
8,-7,-3
7,-7,-2
9,-6,-4
7,-4,-4
5,-3,-3
3,-1,-3
0,0,-6
-4,1,-7
-6,0,-8
-9,0,-5
-10,-1,-3
-15,-1,-6
-10,0,-5
-11,1,-5
-14,-1,-3
-11,-3,-2
-10,-1,-1
-8,-5,-1
-7,-3,0
-6,-1,-2
-2,-1,-1
-3,2,0
3,0,3
2,-2,3
4,-3,3
6,-3,2
4,-6,3
4,-1,5
5,-1,1
7,-2,5
7,-1,5
6,3,4
9,2,4
9,4,3
10,6,2
11,4,3
11,3,5
12,3,0
12,3,3
11,2,2
9,0,3
7,0,2
8,-1,1
8,1,0
8,-1,1
6,0,0
10,0,-2
8,3,0
9,4,-4
7,3,-4
5,2,-5
8,5,-6
8,1,-5
5,2,-8
5,2,-4
0,1,-4
0,-1,-4
1,0,-4
-2,-1,-2
0,-2,-1
-1,0,-2
-1,1,-2
0,0,0
-1,3,0
0,0,1
0,1,3
1,-1,5
1,1,6
2,2,3
8,-1,2
9,0,3
9,3,1
6,3,-3
7,5,0
1,4,1
-1,6,0
-7,5,3
-9,3,4
-15,3,8
-18,4,7
-14,4,5
-9,3,8
-1,4,6
8,3,4
20,0,1
30,2,3
38,0,0
43,1,3
42,0,6
43,-1,7
38,0,9
33,-1,11
25,-1,12
18,-1,13
9,1,7
5,2,9
0,5,8
-1,4,7
-6,4,2
-10,7,-2
-11,7,-3
-12,7,-3
-8,6,-3
-10,5,-9
-10,2,-10
-9,-1,-6
-6,-3,-6
-7,-4,-2
-6,-4,-6
-5,-7,-5
-5,-9,-5
-4,-8,-4
-3,-9,-1
-2,-12,-2
-2,-9,0
1,-6,-3
0,-5,-2
4,-3,-5
3,-2,-2
4,-3,-4
1,0,-1
-1,4,-4
4,0,-2
3,2,0
1,0,0
1,2,2
0,1,3
0,1,7
-3,2,4
1,-1,7
2,-1,11
4,0,10
8,0,10
13,0,11
15,1,8
19,2,9
21,2,12
21,3,8
22,2,10
20,1,15
17,1,12
17,-1,11
16,1,8
11,2,8
6,3,7
7,4,6
4,5,6
6,3,7
6,1,1
6,5,1
7,2,3
10,0,2
11,1,1
10,0,0
11,3,1
11,0,0
10,-3,-1
10,-3,2
10,-7,1
8,-8,2
7,-7,2
4,-7,3
6,-7,0
6,-6,-3
7,-4,-1
4,-3,-6
4,-4,-2
6,-2,-3
0,1,-3
2,-1,-1
1,0,-3
-2,2,-3
-2,2,-4
-4,2,0
-7,2,-1
-7,2,0
-9,1,0
-5,2,0
-3,-2,1
-4,3,0
-3,1,0
-4,3,0
0,4,2
0,4,1
0,3,4
3,0,4
4,1,2
6,1,5
2,0,7
3,0,4
4,0,6
4,-1,6
5,1,6
7,0,4
8,2,5
10,1,2
9,0,2
12,1,0
11,1,-2
10,2,-2
12,4,-1
11,4,-2
8,2,-4
9,1,-2
7,0,-3
4,0,-1
7,0,-1
3,-1,-2
-2,-2,-2
-1,-3,0
-5,0,-2
-7,-3,-1
-7,-1,0
-6,-5,1
-5,-3,1
-5,-5,0
-8,0,0
-1,0,0
-2,1,-2
-1,4,0
0,0,-1
4,3,0
7,3,-2
9,4,-1
11,4,-5
7,4,-7
5,8,-7
3,6,-3
-1,2,-1
-6,4,0
-10,0,0
-12,-3,3
-12,-2,2
-6,-3,2
-2,-2,0
7,0,0
17,0,0
28,1,-3
34,0,1
37,0,1
33,1,4
30,2,7
28,-3,10
21,-2,10
13,-1,12
5,-1,15
0,-1,11
-2,0,11
-2,4,9
-7,6,4
-7,2,6
-5,8,-1
-2,9,-1
-1,7,-1
0,5,-3
1,4,-3
5,2,-4
4,0,-2
6,-5,0
5,-3,-1
7,-7,2
6,-8,1
3,-7,2
4,-9,3
3,-13,4
0,-11,1
2,-12,2
0,-12,-2
0,-10,0
1,-6,-4
-2,-3,-2
0,-4,0
-2,-2,-2
-3,1,-2
0,2,-1
-3,1,-2
-2,1,-1
-3,7,-3
-5,5,0
-6,2,-2
-6,1,-1
-6,0,-2
-7,-2,0
-8,-3,0
-3,-3,3
-3,1,1
-4,0,2
1,1,0
3,2,2
8,1,-4
10,4,-2
10,4,-2
8,3,0
7,2,0
6,1,-2
3,1,3
3,-1,2
1,-3,1
0,0,2
-2,-3,1
-1,-3,1
0,-3,-2
0,-1,-4
0,-2,-1
1,-1,-3
2,0,-6
5,-4,-3
8,0,-3
8,0,-4
8,-3,-3
9,-2,-3
9,-3,-4
10,-4,-2
11,-6,-3
9,-3,-3
9,-7,-5
7,-3,-2
3,-4,-4
4,-4,-1
4,-2,-3
1,-3,-1
0,0,-3
-1,1,-6
-4,2,-5
-9,5,-6
-10,4,-4
-15,4,-2
-14,3,-3
-15,3,-6
-17,2,-3
-15,1,-1
-17,3,-3
-15,2,-2
-14,5,-2
-12,5,0
-9,6,-1
-7,4,0
-5,4,-2
-4,4,2
0,2,0
4,1,2
4,2,2
7,3,1
6,3,1
10,4,1
9,1,0
8,5,2
12,3,4
10,0,5
12,1,6
10,1,6
11,1,6
11,2,4
10,1,2
10,3,4
9,3,0
8,4,2
7,6,0
8,2,1
6,5,0
8,3,1
9,4,1
8,2,2
8,2,2
7,0,4
7,0,5
10,-3,7
5,-1,3
9,-1,4
7,-2,4
8,-1,6
9,-1,7
8,-5,7
9,-5,4
6,-4,5
8,0,8
8,-3,9
10,0,3
9,0,3
8,0,0
7,3,-1
7,1,2
-1,3,-1
0,0,3
-7,-2,5
-8,1,7
-12,1,10
-12,0,12
-10,3,8
-5,6,14
0,7,11
4,6,13
18,6,10
25,5,10
31,9,9
34,5,10
39,4,10
36,0,7
35,4,9
33,0,8
29,-1,8
26,1,7
20,0,5
18,1,8
14,1,8
12,2,9
9,5,9
10,0,5
4,1,2
0,2,4
1,-1,6
-1,1,4
-1,-1,3
-4,-1,4
-6,-4,5
-7,-1,2
-6,-5,2
-6,-3,3
-6,-3,1
-5,-2,-6
-2,-2,-1
0,-4,-4
0,-5,-6
-1,-6,-9
4,-2,-7
6,-5,-6
5,-6,-8
3,-6,-8
7,-5,-3
2,-3,-2
0,-1,-7
0,0,-2
0,-1,-5
2,-2,-2
1,2,3
0,1,0
-1,2,0
-4,2,2
-5,2,2
-3,2,0
-2,1,-1
-1,4,0
-2,5,-2
4,5,-2
8,6,-2
8,8,-3
12,8,-5
18,8,-2
17,6,0
18,6,-2
18,5,0
17,0,0
15,1,2
15,0,3
11,5,1
12,0,3
9,3,-1
9,1,1
5,5,2
6,5,2
5,3,3
3,4,0
3,4,0
4,2,0
3,0,0
5,-1,2
4,1,0
6,1,2
5,-2,3
8,-1,4
8,-1,2
10,-1,4
11,1,1
9,0,4
10,0,4
10,2,3
10,4,0
9,0,0
11,2,-1
7,1,0
8,2,-2
7,4,-4
7,5,-3
1,2,-5
2,2,-5
-2,7,-4
-2,6,-4
1,7,-3
0,2,0
-1,6,-3
-3,6,0
0,1,1
-2,1,2
-2,1,2
0,0,2
-3,1,3
-1,-1,3
5,1,-1
2,5,2
3,3,1
3,7,2
5,7,0
6,7,0
8,5,-2
11,4,1
8,4,-2
10,2,0
10,0,0
12,-1,0
10,0,0
9,2,-2
8,1,2
9,4,3
8,2,2
9,4,1
6,2,0
7,3,2
4,4,2
7,5,2
5,6,3
5,7,0
6,4,0
7,2,0
5,5,0
5,5,0
7,2,0
7,2,-2
10,0,0
11,2,0
12,1,0
18,5,0
22,8,-1
27,11,1
33,12,0
33,13,-2
35,17,-2
39,12,-3
37,15,-5
36,16,-8
32,14,-12
29,10,-10
26,10,-13
22,5,-15
18,2,-15
15,-1,-14
14,-2,-15
8,-5,-16
4,-5,-11
3,-3,-13
-1,-4,-10
1,-9,-7
1,-5,-8
0,-5,-7
2,-6,-6
0,-6,-4
1,-3,-1
-1,-2,0
-1,-1,1
-2,-4,0
-2,-6,2
-2,-8,0
-5,-8,2
-6,-7,0
-4,-3,1
-4,-3,0
-4,-3,1
-4,-3,3
-3,-4,2
-2,-4,0
-2,-4,2
1,-2,3
4,-1,2
5,1,2
5,0,2
2,2,1
4,2,2
2,4,2
-1,5,5
0,1,4
-7,3,8
-5,2,11
-5,3,11
-1,2,13
2,5,11
7,6,10
16,5,6
21,5,8
30,3,6
31,1,4
34,3,4
33,0,7
32,0,8
33,-4,10
27,-4,9
24,-6,10
21,-5,11
17,-6,13
15,-3,13
12,-2,11
10,-2,11
7,-1,13
6,0,11
4,0,12
3,-4,13
8,-3,11
1,-4,11
2,-5,10
4,-7,9
3,-5,6
3,-6,7
1,-8,4
2,-7,7
2,-6,4
5,-3,9
5,-2,3
5,-2,2
4,0,-1
7,3,4
6,0,2
6,0,2
8,0,0
6,0,1
4,-2,1
8,-1,2
7,-3,3
8,-2,2
9,1,-1
12,2,1
11,0,3
13,1,2
11,0,3
12,1,5
11,2,8
12,4,4
9,5,6
11,6,1
12,6,2
11,6,4
15,6,4
18,8,5
20,5,3
19,6,5
19,5,6
22,1,7
17,0,9
17,1,9
16,1,9
15,4,10
11,4,10
12,4,8
10,4,7
9,5,7
9,4,2
6,0,2
7,4,3
7,4,1
6,2,2
7,0,2
10,-1,4
11,0,6
10,-1,1
10,0,-1
14,-3,1
14,-3,-2
11,-3,2
15,-5,2
12,-3,2
11,-4,1
10,-3,-1
8,-3,1
8,-6,0
7,-2,-2
3,-3,2
4,1,3
3,-3,3
0,-4,9
-1,-3,7
1,-2,2
0,1,4
-2,-1,1
-2,1,0
0,2,0
-1,0,1
0,-1,0
1,1,2
2,0,1
3,-4,2
6,-3,3
6,-4,7
6,-5,5
3,-6,6
6,-3,4
4,-3,4
5,-4,6
6,0,3
4,2,4
3,0,3
1,0,0
5,-4,1
1,1,0
3,0,3
2,0,0
3,-1,1
2,-1,0
2,-2,2
0,2,-2
1,0,0
1,0,0
-1,1,0
0,0,-1
-2,-1,0
-1,0,0
-2,0,-2
-4,0,-2
-4,3,-1
-6,3,1
-9,6,-1
-9,6,-2
-7,6,2
-8,8,-2
-9,6,-1
-7,9,-1
-9,7,-2
-10,6,-2
-7,6,0
-10,2,0
-12,1,0
-13,4,1
-12,0,0
-13,6,-1
-13,3,-2
-13,4,-3
-13,3,-2
-14,0,-1
-16,0,-3
-13,-2,0
-15,0,-1
-15,-3,-2
-16,-3,-3
-18,-1,-2
-19,0,-2
-18,0,0
-19,0,-5
-15,0,-2
-19,2,-3
-13,2,-4
-13,2,-3
-10,0,-6
-7,0,-4
-6,-3,-2
-6,0,-5
-6,0,-2
-4,-4,-1
-2,-4,-1
-5,-4,0
-2,-2,-1
0,-2,0
0,-3,-3
1,-6,-2
2,-4,-2
2,-5,-3
2,-6,-2
4,-7,-3
2,-5,2
4,-4,0
3,-2,-5
4,0,-4
3,3,-4
3,0,-6
0,4,-3
-2,3,-1
-3,2,-1
-5,3,0
-7,0,0
-10,0,4
-13,0,4
-12,1,2
-8,0,6
-5,4,5
-1,0,8
6,2,2
14,1,1
19,1,2
21,-1,4
23,1,4
26,-4,5
23,-4,1
22,-7,6
18,-6,6
14,-5,6
10,-4,5
9,-5,7
7,-3,7
5,-4,5
2,0,6
0,-1,4
3,-3,4
0,-1,2
0,-1,4
1,-2,3
1,0,0
0,-2,-1
0,-4,-1
1,-5,0
0,-9,0
1,-8,0
0,-9,3
0,-7,0
-1,-7,0
-2,-7,0
-1,-5,2
3,-7,-1
1,-6,-1
0,-4,2
0,-2,1
4,-3,2
3,-2,-1
1,-1,0
0,-1,-2
1,-2,0
1,-2,0
1,-2,0
2,-3,0
3,-4,2
1,-4,2
-4,-6,4
-1,-7,2
0,-5,6
1,-2,3
0,-2,4
0,0,4
0,0,9
3,0,6
4,1,4
8,0,4
12,0,4
16,2,2
15,1,2
13,0,4
13,-2,4
10,-2,5
8,-2,6
5,-1,4
3,0,6
3,-1,6
2,-1,8
-1,-2,7
1,1,6
4,6,6
8,1,4
8,1,4
8,0,6
10,-2,2
14,0,2
13,-3,0
15,-1,3
15,-4,4
18,-5,1
11,-2,0
15,-5,2
15,-5,1
10,-6,1
9,-6,2
7,-6,3
5,-4,0
2,-6,2
2,-7,1
3,-5,1
2,-4,0
1,-2,-3
0,0,-5
-1,0,-6
0,0,-4
0,1,-3
-3,3,-3
-2,1,-4
-5,4,-3
-7,4,-2
-7,3,0
-5,4,0
-9,3,0
-8,1,1
-6,5,3
-5,0,6
-5,1,3
-6,0,1
-1,0,5
-1,-1,4
0,0,4
1,-2,4
4,-1,5
3,0,6
3,-2,3
4,2,2
5,2,3
5,2,5
7,1,4
8,1,3
5,0,3
7,0,2
5,1,4
7,0,6
8,-1,6
8,-3,4
10,-1,5
7,0,1
9,0,2
8,-2,0
7,-1,2
8,-2,1
7,-4,3
6,0,3
5,2,5
7,-1,2
3,0,2
2,1,2
3,4,1
0,2,-3
4,5,0
5,1,0
8,4,1
9,1,2
8,3,1
10,3,2
10,1,2
9,-1,1
9,-1,3
9,0,4
7,-1,2
6,-4,4
6,-5,8
5,-3,4
5,-2,5
4,-2,5
3,-1,5
3,0,6
6,-1,5
6,2,5
9,-1,9
12,3,2
12,3,1
13,4,0
10,8,1
11,8,0
3,6,0
1,8,1
-2,4,3
-11,6,5
-12,3,7
-14,1,13
-13,0,9
-10,6,9
-3,3,10
8,4,5
15,3,6
24,1,8
30,1,5
36,0,3
32,0,6
28,0,7
24,-1,8
19,-6,6
15,0,7
7,1,5
1,3,7
-2,4,7
-4,7,5
-5,7,4
-6,8,2
-6,6,3
-4,5,-2
-1,2,1
1,0,-6
4,-2,-5
7,-7,-6
12,-10,-7
14,-11,-7
11,-20,-8
14,-26,-6
12,-27,-7
6,-26,-5
8,-28,-4
6,-27,-4
5,-26,-2
4,-24,-4
4,-24,-5
4,-24,-3
2,-20,-4
0,-16,-8
-1,-8,-8
0,-8,-10
0,-5,-9
-2,-4,-13
-5,-1,-12
-11,2,-12
-14,0,-9
-16,4,-8
-22,5,-8
-23,6,-6
-26,3,-6
-28,5,-5
-24,3,0
-19,3,-1
-16,4,-2
-12,4,0
-7,2,0
-1,3,1
0,5,2
4,4,1
3,7,3
6,5,4
5,3,6
5,4,2
3,4,11
2,4,7
0,2,6
0,4,5
3,1,6
0,5,4
4,5,2
2,2,3
7,4,2
9,6,0
11,1,0
11,1,3
15,0,1
15,-1,1
16,-2,3
20,-4,3
19,-3,4
17,-5,6
16,-8,4
15,-7,5
14,-5,6
11,-6,4
10,-5,5
11,-4,7
9,-7,4
6,-2,7
4,-3,4
4,0,3
2,1,6
0,3,6
-3,4,5
-5,5,5
-3,7,7
-9,7,4
-9,10,3
-8,10,2
-12,10,0
-9,11,3
-9,11,3
-7,9,1
-7,6,2
-6,6,2
-5,6,5
-3,3,3
-2,2,8
0,0,9
0,1,10
0,-1,6
3,2,8
1,3,7
0,3,7
1,4,7
3,4,6
1,8,6
3,7,3
7,5,4
7,7,1
2,5,-1
9,6,0
8,5,-1
9,4,-4
6,4,-4
6,2,-3
10,-1,-1
10,-1,0
6,-1,4
8,-3,4
5,-5,8
7,-7,8
8,-7,8
6,-7,8
7,-11,9
7,-11,10
8,-9,9
8,-10,10
5,-7,8
2,-5,8
5,-6,9
7,-3,8
6,-1,7
8,0,5
11,1,1
10,1,2
7,1,2
7,2,5
2,4,2
0,0,4
-4,1,6
-8,-4,10
-7,-7,14
-5,-7,13
1,-7,15
5,-6,10
15,-5,7
24,-5,9
29,-2,5
37,-7,5
39,-6,4
37,-7,5
35,-11,3
30,-11,4
22,-13,3
16,-14,8
8,-9,4
0,-10,5
0,-10,3
-6,-6,2
-7,-5,1
-8,1,0
-11,0,0
-10,1,0
-9,5,3
-7,0,0
-6,1,-3
-6,0,-2
-6,-1,-4
-6,-3,-1
-5,-3,-2
-3,-6,-4
-4,-7,-2
-4,-4,-1
-6,-8,-3
-7,-7,-1
-5,-9,-4
-6,-10,-1
-5,-9,0
-5,-9,1
-6,-10,0
-5,-8,0
-6,-5,0
-5,-6,0
-6,-3,0
-3,-3,0
0,-4,0
-1,0,2
-1,1,1
-3,3,2
-2,5,3
-1,4,6
-4,2,7
-1,4,9
-1,2,9
0,4,9
4,2,7
6,2,7
12,4,7
17,1,7
18,1,8
16,1,15
18,0,14
16,-4,16
13,-8,18
11,-8,15
9,-8,14
5,-10,15
1,-11,11
0,-8,11
0,-8,8
-5,-6,7
-4,-8,5
-2,-4,2
-3,-1,1
-3,-2,-1
-1,-2,-1
1,-2,-2
0,-2,0
3,-2,0
2,0,0
2,0,-2
2,0,-1
3,-4,1
0,-4,0
3,-4,1
1,-7,4
2,-8,2
3,-6,-1
2,-9,0
1,-8,-1
2,-7,-4
3,-4,-3
-2,-5,-3
2,-5,-2
-3,-1,0
-2,0,0
-5,0,-1
-5,2,-1
-2,1,-1
0,4,1
-2,2,2
-1,5,1
-2,6,5
0,4,4
1,4,5
2,0,7
0,3,6
0,2,8
3,1,8
3,0,7
5,-1,4
6,-1,6
8,-3,5
8,0,6
9,0,6
11,-1,5
12,0,5
11,2,5
11,0,8
11,2,6
11,2,9
8,1,2
9,-1,6
6,-2,3
6,-2,5
5,-4,5
4,-4,6
2,-6,4
0,-4,3
2,-4,5
4,-3,3
3,-1,1
3,0,2
6,0,-1
9,1,-2
8,4,-3
5,7,-3
3,6,-4
0,7,-5
-3,6,0
-12,9,1
-12,10,2
-13,6,4
-16,6,0
-10,7,5
-5,5,0
4,7,0
12,5,-2
19,4,-6
26,0,-3
30,1,-3
29,0,-1
22,-4,0
18,-3,3
14,-6,2
8,-7,4
0,-2,4
-2,0,5
-7,1,5
-7,7,4
-10,8,3
-6,8,2
-4,10,-1
-3,12,-3
0,12,-1
1,11,-5
4,4,-2
5,1,-5
5,0,-2
4,-3,1
5,-4,0
5,-6,3
3,-6,2
5,-7,4
5,-7,5
5,-8,2
8,-7,2
10,-6,2
9,-3,1
12,-3,0
13,-3,4
14,1,1
17,0,1
14,0,5
13,1,2
10,0,4
16,2,4
15,0,4
14,-3,4
15,0,2
10,-2,1
5,0,4
5,-1,4
4,-3,2
2,-3,2
0,-3,0
0,-1,3
3,-2,-1
6,0,-1
8,1,-2
12,3,0
11,3,-2
13,3,0
11,0,-3
7,1,0
7,-1,-2
0,-3,0
-3,-2,0
-7,-4,1
-10,0,1
-13,1,-1
-14,-1,-2
-12,0,-4
-12,1,-7
-8,0,-8
-5,0,-7
0,2,-7
0,1,-8
4,1,-9
6,0,-4
9,0,-5
8,0,-1
11,-4,-1
7,-7,1
9,-6,4
7,-4,4
4,-4,2
5,0,3
2,-2,5
3,-1,2
2,-1,0
2,-1,0
4,0,-1
3,4,-1
0,5,0
0,6,-2
-1,6,0
-2,5,1
-1,4,0
0,4,0
1,7,7
0,7,2
2,6,5
4,6,6
3,8,6
6,10,4
3,7,7
7,8,7
7,7,6
8,8,4
6,8,2
8,9,1
7,7,4
7,6,4
2,5,1
6,7,2
0,5,1
4,4,2
-1,2,3
-1,4,2
0,5,2
-2,3,-3
-2,2,-3
0,2,-2
1,0,-2
2,5,-4
1,4,-6
1,3,-4
1,3,-8
1,1,-6
1,2,-4
1,0,-1
2,-1,-6
1,-2,-4
-2,-1,-4
0,-2,-2
2,-2,-1
0,-1,0
-4,0,0
-1,0,0
-2,1,1
-3,6,0
0,6,-1
0,5,-2
4,6,-2
3,7,-5
7,7,-4
3,8,-7
1,6,-4
0,10,-2
-4,8,-4
-8,6,-2
-11,6,4
-10,4,5
-11,5,5
-9,4,9
-2,5,4
3,7,8
11,6,7
20,5,3
25,5,5
28,5,7
31,3,8
35,0,8
32,-3,6
26,-4,5
23,-7,8
15,-5,4
11,-3,7
5,2,2
1,0,2
1,2,2
-4,5,2
-4,6,-5
-5,8,0
-4,5,-2
-7,6,0
-5,9,1
-3,4,0
-4,1,1
-4,1,3
-4,0,5
-4,-2,3
-2,-5,5
-3,-8,3
0,-5,4
1,-5,2
0,-9,3
2,-5,-1
4,-4,0
5,-6,2
7,-4,0
3,-4,0
6,-2,1
5,3,2
6,0,0
4,4,2
7,3,0
8,4,2
10,5,1
9,4,1
10,5,1
11,6,0
9,1,7
5,2,7
3,1,5
3,3,6
1,1,7
1,1,7
2,2,5
2,5,2
4,5,2
8,6,-1
8,5,-1
12,6,-4
11,8,-1
10,6,0
8,5,2
4,2,2
7,-1,0
4,-4,2
6,-4,3
0,-2,2
0,-1,4
-2,-1,6
-2,0,3
1,0,2
-1,1,2
0,0,1
1,0,0
0,0,-5
2,3,-3
2,0,-1
3,0,-3
7,0,-2
7,-3,-2
6,0,-3
8,-4,0
7,-4,-2
9,0,0
11,-3,-2
7,-3,1
10,-3,2
8,-3,0
8,0,1
8,0,4
8,0,0
4,3,1
4,8,0
5,6,2
2,10,0
3,9,-2
0,8,2
0,7,-1
3,8,-2
2,5,1
2,5,0
4,3,1
5,5,2
6,1,7
6,3,4
8,4,5
10,5,5
9,5,4
8,3,6
9,3,7
8,3,6
10,3,8
8,6,3
11,2,2
8,5,1
11,4,3
7,4,0
5,4,-2
5,3,-1
1,2,3
3,1,-2
2,4,0
0,5,0
-1,5,0
-1,6,-4
1,6,-4
0,3,-1
0,5,0
-1,5,-1
-1,1,-2
0,4,1
-1,4,-2
0,5,-1
1,4,0
3,4,2
5,4,3
2,2,2
5,1,-1
6,0,1
4,-1,-2
6,0,1
8,-1,-1
6,1,-2
4,0,0
4,0,0
6,2,0
6,0,-2
4,-1,0
4,2,-1
2,1,0
2,6,0
5,2,-1
2,3,-1
1,2,-1
2,1,-3
0,1,-1
1,0,0
0,-2,-1
0,0,-1
-3,0,-3
-1,1,-2
-1,4,-1
2,0,0
0,2,0
0,0,0
1,2,-3
0,0,-2
0,3,-3
0,0,-1
2,4,-1
2,4,-3
4,7,-1
4,4,-2
3,2,0
8,0,-1
5,1,-3
5,1,0
6,3,0
5,1,-2
4,2,0
2,2,-1
1,0,-1
1,2,-1
4,-1,-1
1,0,0
5,1,0
4,-3,1
2,-2,-2
3,-2,1
4,-2,-1
7,-3,0
6,-2,-5
4,2,-2
3,3,-4
0,7,0
-1,10,0
-6,12,2
-10,11,1
-14,12,3
-14,12,5
-15,11,7
-12,12,7
-10,12,6
-3,14,4
5,16,5
11,13,6
15,13,3
23,10,4
27,10,0
31,2,1
31,0,0
26,-2,3
26,-3,6
22,-3,7
20,-1,7
13,0,7
11,2,7
11,2,11
8,3,9
5,2,8
4,0,8
4,1,11
4,3,9
1,3,5
2,2,4
-3,0,2
0,-1,0
-4,0,0
-3,0,-1
-2,-3,0
-2,-1,3
-5,-5,0
-7,-4,-4
-7,-3,0
-4,-4,0
-3,-6,1
-2,-3,-4
-2,-9,-2
-4,-4,-4
-4,-4,-6
-4,-6,-8
-2,-6,-11
-2,-5,-8
-2,-2,-10
-2,-8,-8
0,-5,-8
-1,-6,-11
0,-4,-11
2,-2,-8
0,-1,-9
1,-2,-8
0,-2,-5
0,0,-3
0,1,-3
0,2,-3
0,6,-1
0,5,0
1,5,-4
2,6,-1
7,4,-2
4,5,-4
7,3,-1
6,1,-3
7,1,-2
4,0,0
5,0,0
1,0,0
0,3,-2
-2,1,-1
-1,2,0
0,1,2
-1,0,0
1,4,4
2,3,1
1,7,1
3,6,3
6,6,3
9,4,4
10,2,6
12,-1,5
10,-2,4
12,-6,3
13,-3,0
14,-5,3
18,-7,5
15,-3,3
15,-3,7
14,-3,5
13,0,3
12,2,1
14,3,1
11,0,0
10,2,-3
6,6,-2
3,3,-2
1,5,-3
-1,5,-2
0,2,0
-3,3,-1
-4,3,0
-9,4,0
-6,4,-1
-5,3,1
-6,2,0
-6,4,0
-5,2,2
-3,4,1
-2,1,1
-1,0,2
-1,1,0
2,-1,0
2,-1,-1
1,-1,2
2,-6,0
2,0,0
3,0,3
2,0,4
3,1,3
5,3,2
3,1,0
4,0,2
3,2,0
2,3,0
5,1,4
6,3,2
5,4,4
10,1,2
9,3,3
10,2,3
11,1,2
11,2,3
7,0,1
10,0,2
8,0,4
12,-1,6
10,0,3
10,1,6
12,2,4
9,0,6
10,2,5
7,1,4
10,3,4
6,1,2
8,1,3
5,3,2
5,3,0
5,-1,0
2,1,-3
2,1,0
3,-1,0
0,0,1
1,-3,2
1,-3,0
0,0,0
-2,-1,-2
-2,2,-1
-3,3,-2
-2,3,0
-4,7,-2
-2,3,0
-1,5,-2
-3,3,-2
-2,3,-1
-1,2,-1
-2,3,-1
2,1,0
-1,2,1
2,4,-1
0,0,0
-1,0,-4
3,2,-1
4,3,-2
2,3,0
1,2,-3
3,1,0
5,3,0
3,0,2
4,1,0
4,-2,1
3,0,0
2,-2,0
4,-4,0
7,-4,0
8,-3,0
8,-1,0
6,-1,0
6,0,2
7,2,1
7,2,2
8,0,0
7,1,-1
5,1,0
0,4,0
0,6,0
-2,3,-2
-5,9,-3
-7,10,0
-9,6,2
-10,14,-1
-10,11,4
-8,8,2
0,10,3
8,8,2
12,8,3
18,5,1
22,5,2
26,2,0
26,0,1
26,-4,2
24,-2,0
20,-3,2
17,-4,4
15,-5,4
13,-6,6
13,-5,3
8,-4,6
5,-5,5
5,-5,1
1,0,3
5,-1,2
9,-2,3
4,4,0
1,3,0
5,0,3
4,0,-2
5,-3,-1
7,-1,-3
5,-2,-1
7,-3,-3
4,0,-2
5,-3,-2
3,-3,-2
5,-6,-2
6,-6,-1
7,-9,-3
5,-7,0
5,-4,0
6,-6,1
2,-5,-3
5,-4,-2
0,-3,-2
1,-5,0
4,-5,-1
4,-6,-1
5,-3,0
5,-5,-1
1,-4,-2
2,-5,0
0,-3,0
-2,-1,2
0,-3,0
-4,1,4
-2,1,3
-6,0,2
-3,-1,3
-1,2,3
1,2,5
4,1,0
7,2,-1
6,4,1
10,1,0
14,1,2
12,1,6
14,3,3
12,-3,7
9,1,6
11,1,5
7,0,6
8,-2,0
10,-1,4
9,-2,0
10,-2,4
10,-1,3
11,0,3
15,1,0
16,0,1
17,-1,3
22,-1,3
24,-3,3
26,-1,1
26,-6,4
28,-5,3
30,-9,3
30,-10,3
27,-11,3
26,-9,2
24,-13,3
19,-12,3
20,-9,2
19,-13,1
13,-9,3
12,-8,0
11,-6,1
8,-8,-3
3,-5,-2
1,-5,-1
0,-1,-1
-1,-2,0
-5,0,-3
-4,0,-1
-3,1,0
-9,0,-2
-7,0,0
-7,-1,0
-8,-2,2
-2,-2,1
-4,-2,2
-1,-3,2
0,-1,3
0,0,2
-1,-2,3
-1,0,3
-1,-4,7
0,-5,6
2,-3,5
1,-3,4
1,-2,3
2,-2,2
1,-1,4
0,-1,4
3,-2,1
4,-1,2
3,1,0
4,3,-1
5,3,1
4,3,1
4,2,0
4,0,0
4,1,-2
5,0,2
7,5,0
7,-2,1
8,-1,0
7,-3,2
8,0,0
7,0,0
4,-1,0
5,0,1
4,0,-3
4,-3,0
7,-3,2
5,0,-2
6,-1,1
3,0,-1
3,-1,0
3,0,2
2,1,2
1,3,3
2,5,2
2,5,2
7,4,4
7,5,1
8,7,0
9,6,-1
11,7,2
11,6,-6
13,4,-1
14,8,0
11,9,-1
12,5,-1
12,5,0
10,2,-1
9,4,-1
12,0,-1
9,-1,0
10,2,2
7,0,-2
5,-1,0
6,0,0
7,0,0
7,0,1
9,0,0
12,3,1
13,2,0
14,2,-3
11,5,-5
10,5,-4
7,6,-5
3,6,-6
-4,4,-5
-10,0,0
-12,3,4
-15,0,4
-16,1,6
-16,5,6
-11,3,4
0,4,6
6,2,6
15,1,3
22,0,2
28,0,6
30,-2,3
31,-5,8
30,-4,8
27,-6,9
20,-5,10
13,-2,12
9,-1,11
3,1,11
2,3,10
-1,4,9
0,6,8
0,7,7
0,8,3
0,11,4
5,3,3
4,2,0
5,2,1
7,0,-1
8,-2,0
6,-2,-4
5,-3,-2
3,-4,-4
4,-4,-2
1,-5,-2
1,-5,0
0,-9,-3
-5,-4,-3
-5,-5,-3
-10,-5,-5
-10,-2,-5
-11,-1,-6
-12,-1,-9
-10,-2,-6
-10,0,-6
-10,-3,-8
-10,0,-7
-7,0,-6
-7,1,-5
-3,4,-4
-3,5,-2
-1,3,1
0,5,2
0,0,3
2,1,3
4,1,3
5,0,5
10,-1,5
14,0,6
17,2,2
23,3,6
25,3,2
29,3,4
28,2,6
28,0,10
24,2,5
22,-1,6
19,0,9
16,0,8
9,0,10
5,-2,6
4,-1,8
5,2,9
2,0,5
3,2,5
4,3,6
5,4,4
8,3,3
8,2,1
8,3,3
11,2,1
11,0,3
12,-3,1
10,-4,-2
10,-6,-1
13,-6,0
10,-5,0
10,-4,1
9,-5,0
8,-5,0
6,-5,-3
5,-4,-4
2,-2,-5
0,-3,-6
0,-1,-8
-1,2,-6
-7,0,-9
-7,3,-8
-10,3,-8
-12,3,-4
-12,6,-4
-14,2,-5
-16,4,-6
-14,5,-5
-14,3,-4
-10,4,-3
-8,3,1
-9,0,-3
-3,0,0
-2,2,0
1,2,0
1,-3,2
3,-2,4
5,0,1
6,-1,7
8,1,9
7,0,8
9,0,8
7,1,8
5,0,5
4,4,5
9,2,9
4,4,1
6,0,3
6,5,5
5,3,2
4,1,2
5,0,1
6,0,2
3,3,2
6,-1,2
2,0,0
7,0,0
3,-1,0
3,-1,-1
3,0,0
4,0,0
3,1,-1
3,2,-1
2,0,1
2,1,2
2,-1,3
0,-1,3
0,-1,2
-2,-1,1
-1,-2,1
-1,-2,2
-4,-5,2
-2,-6,3
-3,-4,3
-1,-1,3
-4,0,3
-2,3,2
0,2,0
0,8,3
2,7,2
4,6,-2
5,7,-2
5,8,-1
4,9,-3
0,9,0
-1,9,-2
-5,7,3
-9,2,3
-14,3,5
-15,2,7
-13,0,9
-8,1,8
-3,0,6
5,0,5
14,1,1
24,0,0
28,0,-3
32,-4,0
30,0,-2
26,-3,0
22,1,6
14,0,6
9,2,8
0,3,6
-3,3,8
-6,5,6
-11,6,6
-12,9,2
-9,10,4
-10,6,2
-8,4,-2
-6,2,-1
-1,2,-3
1,0,-3
4,-3,0
3,-5,-1
4,-7,0
4,-8,1
2,-8,0
3,-10,1
2,-9,0
3,-8,-1
0,-6,0
0,-9,-1
1,-5,-3
1,-4,0
0,-2,-3
0,-3,1
-3,-2,0
-3,-4,0
-4,0,0
-4,-3,0
-1,-2,0
-1,-3,-1
-3,0,-1
0,0,-1
0,3,0
0,0,4
1,0,4
0,0,4
2,-2,7
3,4,4
0,2,2
6,3,7
6,4,6
9,4,7
12,6,6
17,8,4
18,7,5
20,2,3
19,5,4
20,2,4
15,1,3
17,1,3
9,0,4
9,0,4
5,0,1
5,-1,3
4,-1,4
2,0,6
3,3,0
4,2,0
1,2,-1
5,2,-2
4,2,1
5,2,0
4,3,0
5,1,-2
4,1,0
3,0,-1
1,0,-3
0,0,-3
-2,-2,-4
0,-1,-2
-6,0,-3
-7,2,-3
-10,3,-6
-13,5,-5
-19,9,-7
-25,12,-5
-33,22,-11
-37,27,-10
-46,32,-11
-48,37,-13
-52,41,-11
-54,44,-7
-56,49,-12
-58,50,-10
-57,44,-8
-58,47,-8
-58,43,-9
-55,34,-8
-52,27,-9
-51,21,-6
-45,13,-9
-42,9,-5
-37,6,-6
-30,2,-7
-29,-2,-6
-23,0,-1
-18,-6,-3
-15,-2,0
-8,-2,1
-6,-3,0
-2,-2,-3
1,0,-2
4,-2,2
6,-1,1
9,-3,3
15,0,4
19,-2,2
21,-6,6
24,-7,8
26,-5,5
28,-7,6
29,-7,10
30,-6,9
33,-10,8
29,-7,8
31,-8,10
31,-6,7
28,-6,9
27,-3,5
27,-5,9
26,-3,7
22,-1,6
23,-1,6
20,0,5
16,-1,7
18,-2,8
15,-1,6
14,0,7
11,-1,5
11,-3,5
10,-5,4
9,-3,4
9,-3,8
5,-2,4
7,-1,4
7,-1,1
4,0,1
3,-3,0
2,2,-2
3,6,-2
4,4,-4
2,7,-4
0,7,-3
-3,8,-5
-4,8,-4
-8,8,-1
-8,8,0
-12,6,3
-12,10,4
-11,10,7
-7,8,6
0,7,9
7,4,8
17,6,7
22,8,4
29,7,3
34,4,6
37,2,2
36,2,6
33,0,4
28,0,2
23,-4,4
17,-2,3
16,-1,9
7,-1,7
3,1,7
3,2,6
1,4,6
0,2,6
0,4,3
2,1,3
3,4,3
4,2,5
5,3,5
6,3,4
6,0,3
5,0,4
6,-3,0
3,-3,1
3,-5,0
3,-7,1
1,-10,0
2,-7,2
1,-7,0
3,-8,0
5,-6,3
3,-4,0
6,-3,0
8,-5,2
6,0,-3
5,1,-2
4,2,3
6,1,0
4,2,2
7,2,3
9,3,7
6,2,2
4,2,2
5,-1,2
5,-2,4
1,0,4
-1,1,3
0,0,5
0,0,6
-1,3,7
5,3,4
7,6,5
10,5,1
13,7,2
14,8,0
16,4,0
21,5,1
19,2,0
14,2,0
13,2,2
13,-2,5
10,-1,4
7,-1,3
5,-1,0
5,0,0
4,-1,1
1,2,0
5,5,0
2,5,0
2,4,-1
2,2,1
3,4,-3
2,3,-2
4,0,0
3,0,-3
2,-1,2
2,-3,0
3,-1,0
5,-4,5
3,-6,5
2,-1,4
3,-4,3
1,0,0
5,0,0
2,-2,0
7,0,0
5,4,3
5,4,4
3,2,1
3,3,0
2,3,-2
2,5,-2
2,3,-1
1,5,-6
0,3,-3
2,5,-4
0,3,-6
0,7,-7
-1,5,-10
-3,4,-8
-5,5,-7
-10,4,-6
-9,3,-6
-15,1,-6
-16,2,-8
-16,2,-8
-21,5,-9
-19,3,-7
-21,2,-6
-22,3,-7
-22,5,-6
-21,2,-8
-20,1,-7
-18,3,-9
-16,3,-5
-15,3,-12
-13,3,-9
-9,3,-9
-7,2,-8
-5,0,-7
-2,2,-9
-1,0,-5
-2,1,-5
2,-1,-3
3,0,0
7,1,-1
9,-1,0
8,1,1
11,4,5
11,3,7
10,4,5
9,7,6
11,6,7
11,5,4
14,5,5
12,2,6
11,5,4
11,5,2
11,3,4
13,4,5
16,0,8
14,1,5
15,1,7
15,1,6
13,-1,7
13,0,7
14,0,8
14,0,6
13,-1,7
10,-1,7
11,0,4
10,2,5
11,1,4
10,-1,5
7,2,4
9,0,5
9,2,5
8,2,5
10,0,8
10,0,5
10,-2,4
9,4,3
6,5,1
4,4,2
0,3,0
0,6,3
-4,3,2
-2,3,3
-4,4,5
-10,6,9
-4,7,7
-5,8,8
2,5,9
6,10,5
14,8,7
20,8,6
23,5,9
30,3,8
33,2,7
31,0,5
30,0,6
31,-1,6
28,-3,6
24,-4,5
20,-3,5
14,-4,7
11,-1,4
7,0,5
4,2,6
3,0,7
2,-1,7
3,0,3
0,1,4
0,-1,0
1,0,0
2,-3,5
1,-3,0
2,-3,0
0,-5,-3
3,-6,-1
1,-6,0
3,-7,-2
0,-4,-2
0,-5,-5
0,-6,-1
0,-5,-2
0,-4,-2
-2,-4,-3
-1,-3,0
-3,-4,0
-2,-2,-2
0,-4,-3
0,-4,0
-4,-2,0
-4,-5,-2
-1,-5,0
-1,-5,-1
0,-6,0
-3,-5,4
0,-2,2
-2,-1,2
-4,-3,3
0,-2,3
0,-2,1
-2,-1,3
-1,2,5
1,1,3
2,6,2
5,8,-1
8,6,3
13,3,1
13,5,0
15,4,0
15,2,0
12,0,1
9,0,3
8,0,2
7,0,2
6,-4,6
1,-2,2
3,-2,2
4,-1,3
2,1,2
2,1,1
3,2,2
4,0,2
5,0,2
6,1,0
8,-4,-1
7,0,0
6,-1,0
7,-1,0
7,-5,0
7,-4,0
8,-5,3
7,-2,-1
7,-3,3
7,-1,0
7,0,2
6,-2,1
9,-2,1
8,0,-1
5,0,0
6,-1,-2
2,1,-1
2,2,0
0,3,-3
-2,-1,0
-2,0,-2
-1,0,-1
-4,1,-3
-4,1,0
-3,0,1
-3,0,-1
-3,1,2
-2,2,5
0,0,4
2,-1,3
5,-1,7
6,1,4
5,1,6
9,1,2
8,1,3
9,0,3
11,0,7
11,-1,5
9,1,6
11,-2,5
7,-1,3
10,-1,3
7,0,5
6,0,3
5,2,2
3,-1,2
5,1,0
0,2,1
2,2,0
5,0,1
3,1,1
2,0,0
1,0,-2
0,-3,-2
1,-2,0
2,0,0
1,-1,0
0,0,0
1,-3,-1
2,-3,-1
-1,-2,-1
-2,-2,1
0,-1,0
-2,-1,1
-1,-4,0
-3,-1,1
-6,0,0
-2,1,0
-1,2,-2
-2,0,0
-3,1,0
0,1,0
-2,0,0
-3,0,5
-4,-1,6
-2,0,7
-5,0,5
-2,0,7
0,-3,7
2,-3,4
8,-2,2
10,-2,-1
17,-4,-2
19,-8,-2
26,-7,-1
29,-4,-1
27,-5,-2
29,-4,-2
28,-2,0
26,-1,0
22,1,3
18,4,6
14,3,5
9,2,5
3,3,3
-5,5,5
-10,7,0
-16,4,0
-18,4,-1
-27,3,-3
-28,3,-3
-30,4,-5
-28,3,-5
-24,7,-5
-20,5,-4
-11,1,-6
-4,-1,-5
5,-1,-9
12,-4,-6
16,-4,-8
20,-6,-5
20,-8,0
19,-10,-2
16,-7,3
11,-7,0
9,-6,2
4,-4,2
-1,-1,3
-4,0,6
-4,2,5
-7,4,1
-4,4,1
-5,1,0
-4,0,0
-5,3,-3
-4,2,-4
-5,0,-5
0,0,-3
-1,-1,-3
4,-3,-3
0,-4,-1
4,-4,0
7,-2,-3
6,-3,-1
10,-7,2
9,-6,0
11,-4,1
14,-5,5
15,-2,2
14,-4,1
10,-2,2
13,-2,0
11,-1,0
10,-2,2
9,0,1
4,0,4
1,0,0
-1,0,2
0,0,0
-3,-2,-3
-3,-1,-1
-4,0,2
-3,0,0
-6,0,0
-4,-1,2
-5,-1,0
-2,-1,3
-1,0,2
-2,3,0
2,1,2
4,4,0
9,4,1
10,4,1
10,2,0
9,2,3
8,1,3
7,0,4
5,-3,3
4,-1,2
3,-3,4
0,-1,5
-1,-2,6
-5,-1,4
-2,0,2
-1,3,1
-1,3,1
0,1,0
3,1,0
3,2,0
5,0,1
7,0,0
10,0,-1
13,-3,1
12,-3,0
16,-8,2
13,-7,1
14,-7,3
15,-7,2
11,-6,2
14,-7,2
11,-6,2
11,-3,3
12,-4,0
8,-2,-2
9,-4,0
6,-4,-2
6,0,-3
6,-1,1
3,0,-3
0,1,-2
-1,1,-1
-3,3,0
-6,3,-1
-6,3,0
-9,1,-1
-7,6,0
-9,0,-1
-8,3,0
-7,3,3
-2,-1,3
-5,0,3
0,1,3
-1,2,2
2,-2,2
4,2,0
1,1,5
2,-1,4
3,-2,3
4,-1,5
4,0,6
1,0,4
6,-2,5
5,0,3
6,-2,2
6,1,2
5,1,1
5,0,2
7,0,3
7,0,4
10,-1,2
6,-2,3
6,-2,0
7,0,2
9,-2,2
4,-3,4
5,0,5
3,5,5
6,9,9
5,14,6
7,18,10
8,21,11
5,25,12
8,24,12
8,25,11
9,22,14
12,19,12
9,18,12
12,11,13
12,8,10
11,3,9
15,0,9
13,1,7
13,-1,9
13,-1,9
13,-1,6
10,-3,5
9,-4,12
7,-6,9
3,-6,9
5,-3,7
2,-6,8
0,-2,5
1,0,7
2,1,5
1,0,2
1,0,0
4,2,0
7,1,-1
5,2,-5
3,2,-6
1,4,-7
-3,2,-5
-9,0,-3
-13,-2,-3
-20,-1,0
-22,-3,5
-23,-2,7
-19,-5,7
-13,-2,5
-2,-2,5
5,-1,3
11,-1,3
18,1,1
26,3,0
25,0,1
26,-2,0
22,-2,2
16,-1,5
14,-3,6
7,2,5
1,-2,8
-3,0,10
-6,2,10
-9,2,8
-12,1,10
-12,2,7
-9,4,6
-4,1,3
0,2,3
-1,-1,4
4,-2,2
8,-2,2
9,-4,2
10,-6,1
10,-8,0
9,-9,2
14,-6,5
10,-7,0
12,-6,4
11,-5,5
8,-7,3
7,-7,2
7,-5,3
8,-5,2
6,-6,0
4,-4,0
2,-4,-2
0,-1,0
2,0,0
1,-2,0
0,-2,-1
1,1,-1
-2,0,0
-4,0,2
-5,0,0
-3,2,0
-1,3,2
-2,1,1
-5,1,1
0,0,5
2,0,3
4,2,3
8,2,2
12,0,3
12,0,1
13,-1,1
12,0,4
12,-1,2
11,-1,6
8,0,4
9,-2,6
8,0,5
7,3,6
5,2,0
4,3,3
5,0,3
5,2,0
5,1,2
7,1,0
7,0,0
6,0,0
12,0,0
9,0,0
9,-4,3
8,-1,0
10,-2,1
11,-5,5
9,-4,1
7,-4,4
9,-3,1
5,-1,3
5,-1,2
3,-1,-1
6,-4,0
4,0,-2
2,0,-3
0,-2,-2
2,-2,-2
2,-2,-3
0,1,0
-2,4,-4
-3,2,0
-5,3,-2
-4,3,-1
-5,2,2
-6,4,1
-7,3,0
-4,1,0
-1,1,1
-2,2,-1
0,3,0
1,0,0
1,1,3
0,0,1
3,0,3
3,0,4
5,-4,4
5,0,4
4,-1,6
6,-1,3
7,0,3
3,0,1
7,1,0
4,1,3
5,2,0
4,4,1
3,2,2
2,4,0
4,1,2
1,3,-2
0,2,3
3,0,0
1,1,-1
2,3,2
1,0,0
1,1,3
3,1,0
3,0,0
4,1,-3
5,1,-1
5,1,0
6,0,0
8,-2,0
5,-3,0
8,-1,-1
8,-1,-1
5,-2,0
5,-1,0
2,-1,-3
3,-3,1
1,-3,0
0,0,2
-1,-1,2
1,1,2
0,0,3
3,0,4
0,3,1
3,3,1
2,5,1
3,3,-4
7,4,-2
6,4,-3
8,3,-2
1,8,-1
0,10,-3
-4,7,-2
-10,8,0
-16,4,7
-16,5,8
-18,6,6
-13,3,8
-9,3,7
0,6,4
10,2,3
18,3,0
28,-2,0
34,-2,-1
33,-3,1
35,-3,1
30,-4,5
23,-5,2
19,-5,5
10,-5,6
1,0,8
-3,2,8
-8,8,7
-11,6,10
-11,6,2
-11,9,4
-9,6,2
-6,6,1
-2,4,-1
0,4,-4
0,3,-4
4,-1,-2
6,-6,0
6,-7,1
2,-7,0
2,-10,1
2,-12,-2
0,-9,0
0,-10,3
-1,-7,2
1,-9,1
0,-5,0
-1,-2,0
1,-3,1
0,-3,2
0,0,-2
0,0,0
-1,0,-2
0,2,0
0,2,-1
-1,2,-3
-2,5,-1
-1,3,-1
-1,3,-2
-2,2,2
-4,3,4
-6,1,0
-4,4,2
-6,2,3
-7,2,4
-5,2,2
-3,0,5
0,4,1
1,4,0
6,6,-2
9,5,-3
10,4,-4
9,4,-2
9,2,0
9,0,0
6,1,0
4,4,0
3,0,2
1,1,0
-1,0,4
0,-1,0
-1,1,2
0,0,-2
2,1,0
4,3,0
6,3,1
6,3,-2
6,2,0
5,2,-2
7,2,0
5,0,-3
6,0,0
5,-1,2
6,0,1
5,-1,1
6,0,0
6,0,3
8,0,3
8,-1,3
7,1,0
9,0,2
8,0,0
9,-1,0
8,1,2
6,0,1
7,1,1
4,3,0
2,2,3
2,3,0
1,5,1
-1,5,1
0,4,1
-2,4,3
1,3,1
0,4,1
1,3,4
2,4,6
1,4,7
3,3,2
5,0,1
6,2,2
7,2,3
5,2,3
4,2,1
7,3,3
8,0,0
7,1,2
5,2,-1
6,2,3
3,2,1
6,1,3
4,6,0
4,4,2
2,4,-2
1,4,1
3,5,0
1,2,4
3,3,0
1,1,2
1,2,1
3,0,0
2,0,-1
3,3,0
2,0,0
2,0,-2
1,1,-1
0,4,0
-3,0,-1
0,5,-2
-2,1,0
0,5,-1
0,4,0
-1,4,-2
2,3,0
0,5,-2
-1,5,2
2,6,1
7,5,1
7,6,1
5,7,1
8,3,0
9,2,2
10,6,1
12,3,3
12,0,4
17,3,5
13,2,1
15,1,2
15,0,4
15,2,6
13,4,6
13,6,6
15,5,8
17,5,8
14,8,7
16,12,9
17,9,7
15,9,7
11,12,6
9,12,3
3,9,2
1,8,6
-1,9,9
-2,8,10
-5,7,12
-9,10,8
-3,10,9
-2,13,10
9,7,8
14,9,8
17,8,4
23,8,1
33,5,5
33,1,2
29,0,2
28,0,0
22,-2,0
19,-2,1
13,-6,2
8,-5,4
3,-1,3
-4,-2,5
-2,-2,3
-8,0,1
-7,1,3
-12,1,-3
-9,0,0
-8,3,-1
-8,2,-1
-8,4,-2
-6,1,-3
-5,1,-4
-4,-1,-2
-4,0,-7
-2,0,-4
-4,0,-6
-2,3,-6
-4,6,-6
-6,10,-8
-7,11,-11
-12,17,-11
-17,25,-16
-20,27,-17
-28,30,-24
-26,32,-22
-31,34,-28
-35,34,-25
-32,32,-25
-33,31,-21
-32,27,-19
-34,20,-19
-27,18,-20
-25,16,-15
-23,12,-9
-21,5,-6
-16,0,-4
-14,0,-2
-10,-2,1
-8,-4,0
-6,-3,6
-4,0,6
-5,1,4
1,1,5
5,6,3
5,4,2
8,8,0
12,8,1
14,7,0
15,7,-1
12,4,0
14,1,1
11,2,2
12,-2,4
10,-4,2
11,-4,3
12,-6,8
13,-5,10
11,-4,5
12,-4,7
13,-2,7
14,-4,8
17,-3,7
16,-3,4
16,-4,8
17,-5,7
16,-5,2
15,-5,4
18,-6,7
19,-5,8
18,-3,7
19,-5,9
18,-4,7
21,-10,13
18,-6,8
20,-9,10
20,-6,8
18,-8,7
19,-7,7
17,-8,9
15,-8,8
15,-10,6
12,-5,9
11,-4,5
10,-3,7
7,-1,6
4,1,4
6,1,4
3,1,6
4,1,1
2,3,4
4,0,4
3,-1,3
0,-3,3
1,-2,4
3,-3,4
4,-5,6
4,-5,3
7,-5,5
3,-6,4
8,-5,2
4,-5,6
5,-3,5
6,-3,5
5,-1,4
8,0,5
8,1,2
6,0,0
5,0,2
3,0,-1
4,-3,1
8,-2,2
6,-3,3
6,-2,1
5,0,2
8,-3,3
7,-2,2
4,0,1
9,-2,2
6,-4,0
8,-1,2
6,-2,1
5,0,2
5,2,2
6,-2,3
4,0,0
4,-1,4
5,0,4
3,-1,2
4,-1,0
3,0,1
4,0,1
4,-2,2
4,0,1
4,0,5
6,0,0
6,-1,4
5,0,4
7,0,2
9,-1,4
7,0,3
6,0,7
8,1,6
13,0,5
10,0,4
10,6,4
10,3,3
11,1,4
13,0,4
12,1,3
15,1,1
13,3,2
13,2,-1
12,1,3
13,4,1
9,3,2
12,3,3
10,0,0
9,-1,0
9,-3,1
6,-3,0
7,-6,0
2,-7,0
1,-4,2
4,-3,0
4,-1,-1
3,0,0
1,-3,0
2,0,-2
2,0,-1
0,1,-2
-1,1,-3
-6,2,-4
-9,2,-3
-11,1,-5
-11,5,0
-13,2,-2
-15,5,0
-14,6,2
-15,7,2
-7,6,4
0,6,7
7,8,2
14,5,7
21,7,6
26,2,5
30,1,6
31,1,5
31,0,6
29,-3,6
23,-3,5
22,-3,5
18,-4,9
14,0,6
14,0,9
8,0,11
3,0,10
3,0,8
2,3,9
3,3,4
4,1,7
6,0,2
6,0,4
6,-1,3
8,-1,1
9,-3,1
7,-4,0
7,-4,-2
8,-8,0
3,-5,1
4,-10,0
5,-6,-2
3,-5,-5
2,-5,-4
0,-4,-3
-1,-3,-4
-2,-3,-3
-2,-5,-4
-4,-2,-5
-5,-1,-4
-5,0,-4
-7,0,-4
-8,0,-4
-6,0,-7
-8,0,-3
-2,-1,-6
-3,0,-5
-2,-1,-5
-2,-2,-5
-1,-1,-2
-1,-5,-2
-2,-2,0
-3,-3,1
0,-3,3
-1,-3,3
1,-1,2
3,0,2
5,3,2
9,3,0
9,6,0
9,8,2
14,7,-2
12,7,0
11,2,1
10,-2,2
4,0,2
4,-3,3
6,-5,5
4,-5,6
4,0,3
1,0,5
1,1,5
0,0,2
3,-2,5
4,0,3
3,-2,1
5,-1,1
8,-3,4
8,-3,0
10,-9,4
9,-5,0
10,-9,4
13,-8,3
12,-7,1
11,-6,0
13,-3,3
13,-1,0
11,-3,0
8,-2,-3
10,-2,0
10,-3,1
8,-3,-3
8,-2,-2
4,-2,-3
0,-5,-3
1,-3,-4
0,-3,-2
-1,-2,-5
-3,-1,-2
-4,-2,-3
-6,1,0
-7,-3,-1
-6,-2,-1
-9,0,-1
-7,-1,0
-5,0,3
-4,-4,1
-1,-2,2
-3,-1,0
2,-3,4
2,-3,0
1,-2,0
4,-5,3
5,-3,2
5,-1,0
5,-1,1
6,0,2
6,-1,4
4,0,2
5,-1,4
4,0,1
3,-1,3
5,0,4
4,0,3
2,1,1
5,0,0
3,0,0
2,-1,0
4,-1,-1
3,-2,1
3,-4,1
1,-2,-1
2,2,0
1,-2,0
3,-2,0
1,-1,0
3,-2,0
0,-1,-1
0,3,1
0,0,-1
-1,1,0
-3,1,1
0,0,0
-1,1,0
1,1,-1
2,2,-4
1,2,0
0,4,0
1,0,-1
0,1,-1
2,2,2
0,3,-2
0,2,1
0,5,-2
-1,4,0
-1,5,1
0,5,0
-1,7,0
-2,5,1
1,6,1
1,8,0
2,6,-1
3,7,-1
4,6,4
6,4,1
7,1,-1
8,-1,-1
9,0,0
6,0,0
7,-1,3
7,-1,4
7,-1,1
8,-3,2
6,-2,3
7,-1,5
5,-2,2
5,-6,1
5,-5,4
4,-5,2
3,-5,3
5,-6,3
3,-5,5
2,-2,5
7,0,4
5,0,2
5,-3,-2
6,0,-1
7,1,-3
4,4,-2
3,3,-3
-1,4,-4
-4,3,-5
-7,5,-2
-9,6,1
-16,2,7
-17,1,9
-15,0,11
-12,1,10
-8,1,9
3,1,9
9,1,5
19,-1,3
27,1,2
30,-4,5
30,-6,3
31,-7,7
28,-5,9
22,-6,3
14,-3,8
10,-4,9
4,-2,10
4,-3,10
-2,3,8
-5,2,7
-4,6,7
-3,4,6
-2,1,3
-2,0,2
-2,2,3
1,0,-1
5,-4,0
2,0,-2
5,-6,-2
8,-5,-2
5,-7,-1
5,-7,-2
11,-8,0
9,-8,-2
9,-8,0
7,-6,-2
6,-4,-4
3,-4,-5
1,-8,-4
0,-5,-4
-1,-6,-4
-2,-6,-3
-5,-2,-3
-5,-2,0
-5,0,-3
-5,-2,0
-6,-2,0
-3,-1,-1
-5,0,1
-4,0,2
-6,-4,2
-8,0,1
-8,-3,5
-8,-6,3
-4,-10,5
-8,-11,5
-4,-12,6
-4,-11,6
0,-11,5
1,-9,4
2,-8,4
6,-6,2
6,-6,2
7,-3,3
9,-3,4
4,0,5
5,-2,6
4,-3,5
-1,0,4
-7,0,5
-8,1,2
-11,1,5
-9,4,2
-14,5,0
-9,2,1
-8,7,-2
-6,4,-1
-6,4,1
0,2,0
0,4,0
0,1,-2
5,1,-2
6,0,-3
8,1,-1
10,1,-2
13,-1,-2
12,-1,-1
13,0,-1
14,-2,-1
14,-1,-2
11,0,-3
13,0,0
11,0,-4
12,2,-3
8,5,-6
8,0,-5
7,-1,-4
2,0,-2
-1,0,-5
-3,0,-4
-8,1,-3
-7,1,-2
-9,1,5
-12,2,3
-14,1,0
-11,4,2
-10,3,2
-9,4,0
-7,3,3
-6,2,4
-5,1,1
-2,1,1
0,0,5
4,0,7
4,1,6
4,0,7
9,1,6
9,0,7
10,3,8
14,0,8
11,1,7
14,2,7
11,2,5
17,0,3
13,2,3
15,-1,3
11,3,1
11,4,2
11,2,2
9,0,1
9,0,0
12,0,0
6,0,-1
6,2,0
6,0,2
6,0,-1
8,0,0
7,2,0
7,6,-3
6,2,0
8,4,-3
8,3,-1
8,2,-1
10,4,-1
12,2,-1
17,0,0
16,0,1
19,2,0
15,4,-2
15,5,1
17,4,1
13,5,3
16,3,5
11,0,3
12,0,8
10,2,6
10,0,9
8,-2,8
8,2,7
9,4,7
6,1,5
8,5,7
7,3,5
12,4,1
13,5,0
13,7,-1
10,6,0
10,4,0
6,5,-1
3,7,2
0,3,7
-6,2,7
-8,1,8
-8,4,4
-6,3,5
0,2,5
10,2,5
17,2,0
25,3,2
31,2,0
34,-3,0
32,-3,2
29,-4,4
26,-6,4
18,-7,4
10,-4,3
2,-2,7
-4,0,4
-9,0,4
-11,3,4
-12,5,5
-11,7,4
-10,6,2
-7,5,1
-4,8,-1
0,4,1
2,-1,2
5,-5,0
6,-1,1
9,-7,0
8,-7,0
8,-10,0
8,-12,1
9,-12,3
5,-10,3
5,-13,4
4,-12,3
5,-11,4
3,-9,1
2,-7,0
5,-6,1
2,-6,0
3,-4,0
0,0,0
1,-3,0
2,-1,-1
0,1,0
2,1,-1
0,1,-3
1,3,2
0,4,2
1,2,0
-1,4,3
-5,1,1
-2,0,0
-3,0,5
0,-2,2
0,-1,5
3,0,3
5,1,3
12,0,2
14,7,2
16,3,1
17,4,3
17,2,-1
15,1,2
14,2,0
7,4,1
5,0,0
3,1,2
1,0,0
0,-2,0
-1,1,1
0,0,0
-1,0,-3
1,-1,0
0,-1,-2
7,0,0
7,-1,1
7,-1,-1
8,-2,3
9,-2,0
10,-4,2
10,-1,2
11,-4,1
10,-1,1
9,0,3
8,0,1
10,1,0
12,2,0
8,2,-1
14,0,-1
12,2,0
13,1,-3
13,2,-3
9,3,-1
7,2,0
7,4,0
7,1,2
0,0,2
-1,3,2
-2,2,3
-6,1,5
-5,1,3
-8,0,-1
-7,1,0
-5,2,0
-5,2,-3
-5,4,0
0,4,-4
0,3,-1
0,3,0
2,2,-3
1,1,-2
5,0,0
5,-1,-3
6,-2,0
3,1,-1
2,0,0
2,-1,2
0,-1,-1
1,-1,3
2,0,0
1,1,0
0,1,0
-1,-1,-1
0,0,-1
1,0,2
0,-1,0
3,-1,0
0,-1,-3
1,-1,-1
0,-1,1
3,0,0
1,2,1
2,0,1
4,3,4
4,5,4
5,2,2
4,2,4
6,3,3
5,1,3
9,-1,6
8,0,3
7,0,2
10,0,2
10,0,3
7,0,2
8,0,1
8,0,0
5,-1,-1
5,0,0
4,0,1
7,-1,1
1,4,1
0,0,4
0,4,1
1,4,-2
0,3,0
3,7,-1
-2,6,-2
-5,4,-3
-6,6,-3
-7,8,-4
-11,8,0
-14,4,0
-17,6,4
-18,8,8
-11,5,5
-6,7,7
0,7,5
7,9,2
17,10,5
24,7,1
31,7,2
34,5,2
35,4,3
32,4,1
30,0,3
26,1,9
20,-2,5
12,2,3
9,0,4
0,1,4
-2,4,4
-6,6,1
-7,5,0
-5,1,2
-5,1,1
-7,5,2
-6,5,1
-2,3,0
-4,4,-2
-3,2,-2
-2,-1,0
-6,0,1
-2,-1,2
-4,-3,0
-5,-2,-1
-3,-7,-2
-2,-5,0
-3,-5,0
0,-7,1
2,-5,-2
1,-4,4
5,-2,-1
2,-2,0
3,3,-3
5,-1,-2
4,1,0
6,8,2
7,6,3
4,6,0
4,4,2
2,4,0
1,5,1
1,4,2
1,5,3
-1,5,2
-1,2,1
0,2,1
-3,6,0
-4,5,1
-3,7,0
-3,6,0
0,9,0
0,10,-2
1,10,-4
1,10,-5
1,10,-6
4,11,-5
3,8,-4
2,7,-3
-1,7,-2
-4,7,-3
-8,1,-3
-5,2,-2
-9,0,-1
-9,1,0
-9,2,-3
-10,2,-6
-8,0,-4
-6,1,-4
-5,2,-2
-7,7,-6
-4,2,-2
0,3,-5
0,5,-5
1,2,1
3,2,0
5,1,-1
3,0,0
5,0,1
7,0,0
9,0,3
7,0,2
8,2,4
9,-1,3
6,0,4
9,-1,3
11,0,4
10,0,5
9,2,5
9,-1,4
9,1,4
5,3,4
7,2,4
6,3,5
5,2,4
7,2,6
3,3,5
3,3,5
2,3,4
1,3,5
3,2,4
3,0,6
0,0,3
2,0,4
4,-1,4
3,-1,3
3,0,3
2,0,1
1,0,0
5,0,3
3,1,4
4,0,2
5,1,6
4,1,3
6,2,1
5,-2,2
6,2,2
6,4,4
7,0,5
6,0,2
4,0,4
6,1,3
8,1,5
3,1,2
6,2,0
5,2,0
7,2,4
7,1,1
6,3,2
7,0,3
5,1,2
5,0,3
7,0,3
5,-2,0
6,0,1
6,-2,1
4,0,2
5,1,3
5,1,1
4,3,1
5,0,2
7,0,2
5,2,1
6,1,2
6,2,2
8,2,2
7,3,3
9,2,3
9,2,3
8,0,2
7,-1,5
7,1,3
9,0,4
10,1,4
10,0,4
9,-3,6
11,-2,4
13,0,5
9,2,4
12,0,8
11,2,10
14,1,10
12,0,7
12,4,5
11,2,5
11,1,6
8,5,3
3,6,1
6,4,5
0,4,5
0,4,4
0,4,5
-3,4,10
-5,7,8
-5,6,10
0,6,15
4,10,9
9,7,12
16,10,10
24,5,11
27,5,13
34,5,12
35,3,8
33,0,9
34,0,10
32,-1,7
25,2,7
22,0,4
17,-1,8
14,0,8
9,2,6
9,3,10
7,4,10
4,2,8
2,4,9
4,3,10
2,3,5
5,2,6
7,0,2
4,-2,1
3,-3,-1
7,-4,4
5,-5,0
7,-6,0
6,-3,1
3,-5,0
3,-1,-1
4,-3,2
1,-3,-1
3,-5,1
0,-2,1
0,-4,-3
2,-5,-2
3,-2,-2
2,-2,1
0,-3,-1
1,-2,-3
0,-1,-5
0,-1,-1
-3,0,0
1,-1,-3
0,-1,-1
2,-1,-1
0,-2,0
-2,-1,1
0,0,3
-2,-2,2
0,0,3
0,0,2
1,0,5
3,0,5
6,0,3
8,3,4
10,7,2
14,6,3
13,10,0
16,7,1
14,5,0
15,5,5
12,0,2
9,0,3
8,-1,4
6,0,4
2,-1,3
2,-1,4
1,0,6
2,0,3
1,1,0
1,2,2
2,2,1
2,2,1
3,3,3
6,-1,2
6,0,-1
2,1,-1
8,-2,-2
3,0,-4
8,-3,-1
7,0,-1
5,0,1
8,0,1
8,-1,2
8,-2,0
9,-1,-2
11,-1,1
10,0,4
7,1,2
6,1,0
9,-2,-1
7,1,0
2,0,0
1,1,0
0,2,0
0,0,0
-1,1,3
-3,0,-1
-3,0,1
-1,1,1
-3,1,3
-4,2,1
-1,3,1
0,1,0
-1,1,3
0,0,1
1,0,3
3,0,5
4,0,1
3,0,0
2,-2,2
4,-2,0
4,2,3
6,3,1
6,3,0
4,3,1
4,7,1
7,5,-1
2,5,1
6,1,0
4,2,-3
7,1,0
3,0,0
2,-2,0
4,-6,0
4,-1,-2
3,0,-2
2,-1,-3
1,4,-7
0,0,-1
0,0,-2
0,-3,-4
-3,-2,-4
-6,-2,-4
-8,-1,-5
-5,-1,-4
-7,0,-3
-6,-1,-3
-8,-3,-2
-6,-1,-4
-8,-1,-3
-6,-3,0
-6,-1,-1
-5,-6,-2
-7,-2,-4
-2,-4,-2
-1,-4,-3
-3,-4,-2
1,-3,0
3,0,-1
5,-3,0
3,-2,-2
4,-1,0
6,1,0
7,0,0
3,1,-2
7,0,0
4,1,0
4,-3,2
3,-2,-2
3,0,-2
5,-4,3
4,-5,0
7,-3,1
3,-3,0
4,-5,1
5,-3,3
6,0,2
3,1,-2
3,0,0
5,1,0
0,0,0
0,2,-2
-3,5,-3
-10,2,-2
-9,6,1
-16,4,1
-14,5,3
-13,8,8
-10,6,7
-8,7,8
0,6,4
8,2,7
16,2,5
22,2,6
28,0,2
31,-3,3
33,-5,6
31,-7,3
29,-7,4
26,-2,4
18,-4,7
16,-4,6
11,-5,7
5,-2,5
1,0,5
-2,0,6
-2,0,7
