73320
73324
73342
73354
73316
73215
73126
73058
73017
72947
72943
72932
72924
72940
72963
72949
72973
72997
72990
72970
72961
72955
72951
72929
72916
72935
72917
72924
72915
72911
72927
72929
72918
72903
72895
72890
72914
72961
72953
72910
72827
72693
72604
72549
72530
72524
72516
72520
72534
72537
72534
72551
72545
72541
72531
72552
72561
72581
72603
72608
72635
72690
72685
72698
72705
72729
72741
72750
72763
72768
72787
72817
72858
72848
72903
72929
72977
73020
73025
73051
73089
73073
73097
73134
73134
73107
73014
72904
72813
72738
72747
72750
72757
72787
72788
72807
72837
72817
72847
72848
72854
72841
72870
72859
72867
72857
72880
72904
72953
72982
73006
73043
73051
73073
73078
73084
73124
73129
73178
73193
73230
73261
73291
73296
73289
73312
73324
73345
73366
73380
73330
73271
73151
73051
72979
72956
72924
72930
72943
72931
72928
72915
72950
72967
72972
72984
73011
73002
73002
73027
73017
73024
73039
73053
73060
73069
73081
73102
73125
73132
73148
73138
73186
73176
73213
73209
73208
73235
73244
73253
73257
73286
73291
73281
73226
73150
73035
72953
72886
72860
72813
72808
72803
72825
72818
72816
72817
72856
72850
72864
72855
72892
72953
72997
73045
73071
73106
73136
73156
73181
73217
73216
73252
73308
73332
73362
73396
73397
73422
73435
73432
73439
73443
73409
73322
73210
73085
73022
72988
72949
72939
72948
72936
72944
72973
72975
72970
72960
72935
72912
72887
72902
72900
72889
72906
72900
72909
72929
72924
72919
72931
72916
72924
72919
72929
72931
72943
72970
72957
72896
72781
72667
72575
72517
72479
72434
72388
72385
72351
72344
72343
72366
72371
72366
72343
72310
72292
72300
72305
72289
72324
72327
72322
72326
72352
72369
72384
72395
72403
72415
72431
72423
72413
72433
72448
72468
72477
72455
72364
72207
72120
72046
72011
71963
71931
71935
71934
71907
71927
71916
71955
71960
71969
71953
71935
71936
71954
71951
71976
71951
71969
71940
71958
71961
71960
71971
71988
72010
72026
72043
72073
72100
72115
72138
72171
72193
72201
72233
72255
72246
72305
72367
72435
72482
72427
72325
72165
72039
71947
71918
71852
71798
71768
71773
71760
71776
71797
71833
71882
71887
71919
71938
71927
71944
71983
71984
71990
72021
72011
72065
72079
72094
72148
72171
72202
72259
72297
72315
72384
72441
72469
72514
72553
72589
72631
72646
72680
72703
72727
72784
72807
72795
72731
72646
72532
72476
72453
72443
72414
72437
72457
72483
72495
72484
72533
72565
72574
72585
72584
72567
72563
72560
72573
72569
72572
72598
72616
72608
72625
72645
72669
72688
72715
72751
72767
72758
72786
72790
72822
72838
72845
72865
72871
72882
72877
72767
72654
72579
72520
72498
72492
72479
72493
72482
72506
72512
72521
72547
72550
72551
72556
72531
72515
72525
72547
72553
72564
72570
72582
72565
72571
72581
72616
72603
72630
72647
72679
72687
72715
72754
72751
72778
72769
72723
72581
72493
72424
72400
72376
72358
72362
72341
72358
72345
72368
72386
72429
72421
72425
72426
72426
72421
72421
72442
72435
72447
72457
72475
72495
72494
72519
72525
72550
72541
72566
72595
72598
72579
72633
72644
72659
72607
72500
72384
72287
72219
72190
72174
72171
72163
72158
72167
72191
72211
72215
72243
72284
72280
72273
72299
72272
72269
72284
72314
72318
72331
72355
72372
72415
72394
72434
72440
72473
72503
72508
72532
72573
72583
72614
72640
72668
72696
72713
72735
72762
72769
72812
72821
72855
72853
72795
72675
72548
72446
72396
72372
72364
72350
72350
72367
72367
72362
72407
72451
72483
72463
72466
72469
72465
72467
72485
72494
72499
72503
72529
72542
72570
72581
72615
72621
72645
72673
72693
72709
72725
72759
72788
72816
72840
72849
72888
72918
72939
72956
72982
72997
73064
73103
73133
73093
73000
72864
72796
72731
72693
72711
72713
72746
72723
72772
72756
72767
72782
72794
72798
72779
72786
72758
72771
72759
72763
72772
72795
72791
72810
72841
72835
72858
72876
72871
72866
72890
72920
72936
72954
72955
72972
73007
73003
73021
73036
73055
73047
73015
72930
72822
72741
72678
72636
72634
72638
72636
72663
72690
72698
72727
72745
72787
72772
72765
72754
72748
72754
72758
72763
72779
72807
72800
72812
72830
72849
72846
72871
72876
72880
72903
72925
72928
72948
72995
72990
72993
72967
72867
72753
72685
72632
72599
72588
72609
72620
72642
72640
72664
72680
72732
72730
72738
72726
72727
72726
72718
72747
72752
72759
72798
72793
72815
72842
72846
72850
72874
72880
72885
72925
72925
72944
72933
72873
72750
72655
72589
72574
72554
72552
72539
72562
72555
72562
72565
72582
72610
72590
72577
72550
72546
72529
72522
72520
72548
72572
72576
72568
72589
72590
72591
72641
72637
72655
72673
72665
72651
72659
72677
72683
72654
72538
72425
72333
72301
72283
72277
72276
72273
72263
72279
72286
72296
72333
72347
72361
72378
72377
72375
72370
72374
72409
72406
72429
72432
72452
72485
72510
72515
72539
72557
72573
72616
72643
72686
72682
72727
72747
72783
72802
72821
72830
72872
72882
72914
72922
72919
72948
73001
73011
72998
72908
72797
72646
72557
72508
72487
72472
72472
72476
72469
72485
72482
72520
72537
72548
72563
72576
72576
72587
72573
72579
72596
72610
72631
72651
72670
72696
72688
72706
72721
72758
72768
72789
72807
72830
72852
72874
72891
72921
72955
72980
72999
73014
73043
73044
73076
73089
73122
73144
73155
73098
72969
72868
72786
72746
72740
72735
72733
72735
72773
72766
72783
72793
72824
72838
72836
72863
72849
72853
72859
72847
72852
72862
72876
72885
72896
72911
72919
72929
72960
72963
72979
72990
73022
73029
73031
73035
73059
73097
73107
73122
73129
73130
73169
73171
73189
73179
73101
72985
72864
72824
72791
72772
72763
72777
72800
72798
72823
72825
72862
72876
72891
72887
72893
72862
72872
72872
72890
72913
72918
72950
72961
72986
72982
73017
73026
73044
73059
73088
73115
73141
73139
73165
73170
73192
73224
73239
73220
73163
73063
72967
72875
72839
72844
72855
72836
72872
72869
72880
72911
72918
72943
72957
72958
72952
72910
72813
72732
72682
72663
72673
72681
72709
72699
72716
72702
72718
72716
72726
72715
72722
72733
72757
72773
72779
72810
72838
72881
72850
72773
72665
72588
72537
72523
72519
72532
72568
72547
72588
72604
72625
72637
72684
72677
72656
72668
72644
72654
72645
72627
72613
72584
72588
72591
72620
72636
72665
72712
72729
72765
72785
72817
72831
72862
72889
72945
72956
72998
73029
73062
73087
73130
73132
73065
72966
72848
72788
72730
72730
72722
72729
72727
72737
72753
72753
72767
72818
72850
72846
72864
72865
72874
72863
72881
72875
72897
72902
72912
72932
72953
72972
72995
73016
73024
73043
73062
73098
73128
73156
73204
73231
73275
73325
73357
73387
73414
73418
73397
73350
73235
73104
73013
72932
72895
72873
72873
72849
72883
72877
72893
72897
72898
72933
72932
72931
72932
72900
72900
72911
72912
72922
72911
72944
72931
72959
72981
72993
73008
73021
73030
73050
73040
73072
73086
73107
73103
73112
73125
73140
73141
73137
73158
73109
73001
72865
72778
72727
72692
72674
72695
72687
72688
72704
72715
72757
72765
72788
72782
72784
72770
72755
72756
72757
72767
72781
72787
72801
72832
72845
72852
72876
72873
72881
72898
72919
72934
72953
72973
72976
72995
73028
73034
73039
73014
72907
72769
72673
72610
72568
72567
72551
72528
72564
72576
72579
72606
72654
72675
72699
72710
72682
72669
72691
72697
72697
72735
72740
72759
72785
72794
72802
72819
72843
72860
72883
72882
72919
72904
72951
72955
72971
72979
73008
73036
73043
73072
73059
72977
72833
72731
72654
72618
72625
72610
72600
72601
72624
72636
72659
72685
72714
72746
72748
72753
72744
72767
72757
72753
72779
72784
72837
72845
72861
72887
72904
72944
72969
72994
72999
73024
73054
73071
73100
73100
73151
73166
73203
73209
73233
73251
73260
73284
73313
73344
73341
73289
73180
73037
72961
72898
72850
72847
72846
72855
72858
72853
72886
72903
72945
72986
73014
73030
73053
73053
73060
73081
73084
73100
73103
73116
73133
73140
73155
73164
73150
73162
73206
73217
73227
73245
73246
73267
73298
73309
73322
73341
73357
73383
73412
73413
73418
73432
73449
73465
73472
73436
73318
73193
73092
73021
72978
72973
72945
72956
72969
72988
72992
73006
73036
73072
73073
73087
73066
73061
73055
73043
73055
73077
73098
73081
73107
73108
73117
73131
73143
73165
73177
73178
73181
73222
73215
73235
73256
73283
73296
73289
73317
73330
73288
73202
73085
72956
72898
72870
72846
72840
72831
72836
72849
72865
72889
72921
72959
72955
72958
72938
72930
72913
72916
72919
72918
72952
72939
72930
72935
72945
72946
72965
72965
72992
72994
72997
73031
73049
73047
73080
73084
73102
73112
73093
73011
72863
72742
72694
72637
72606
72588
72590
72576
72594
72591
72598
72636
72649
72668
72696
72681
72672
72683
72677
72685
72715
72707
72736
72752
72773
72787
72791
72817
72840
72825
72857
72879
72894
72919
72943
72965
72992
72995
73001
73045
73078
73098
73115
73099
73021
72892
72727
72629
72576
72545
72526
72513
72510
72515
72518
72516
72546
72576
72620
72607
72626
72608
72595
72603
72611
72625
72632
72665
72687
72687
72724
72700
72728
72761
72755
72793
72826
72841
72859
72878
72917
72937
72955
72991
72991
73008
73021
73073
73076
73073
72975
72840
72711
72617
72559
72525
72510
72511
72519
72538
72520
72539
72542
72572
72593
72621
72613
72607
72578
72581
72595
72582
72607
72632
72616
72645
72653
72673
72673
72698
72690
72716
72735
72774
72776
72784
72785
72824
72825
72847
72883
72893
72871
72797
72661
72559
72492
72463
72429
72422
72425
72439
72457
72474
72506
72538
72567
72569
72593
72579
72569
72563
72580
72586
72587
72626
72624
72641
72655
72697
72709
72742
72761
72762
72804
72803
72825
72853
72870
72892
72923
72939
72915
72836
72722
72587
72561
72521
72495
72496
72502
72534
72544
72555
72558
72605
72651
72666
72676
72669
72642
72654
72645
72671
72708
72716
72737
72726
72752
72779
72777
72799
72803
72836
72856
72898
72894
72917
72948
72970
72978
73012
73009
72953
72826
72705
72618
72567
72534
72537
72555
72560
72540
72559
72584
72605
72614
72635
72675
72659
72683
72680
72672
72688
72708
72704
72737
72778
72778
72786
72822
72843
72864
72888
72910
72916
72947
72964
72993
73007
73043
73068
73093
73110
73128
73143
73179
73182
73208
73202
73121
72972
72839
72748
72685
72653
72643
72629
72623
72637
72644
72661
72662
72683
72700
72716
72714
72730
72703
72721
72728
72737
72750
72762
72770
72783
72804
72834
72847
72857
72869
72910
72930
72949
72980
72983
73002
73038
73057
73075
73102
73113
73131
73139
73174
73191
73211
73224
73243
73269
73268
73228
73094
72966
72848
72777
72731
72699
72672
72682
72697
72695
72710
72714
72723
72776
72785
72792
72783
72783
72770
72759
72755
72774
72772
72775
72806
72827
72843
72865
72858
72886
72889
72900
72926
72942
72968
72971
72983
73005
73005
73042
73065
73089
73085
73093
73123
73126
73138
73115
73002
72882
72780
72688
72656
72641
72629
72656
72663
72673
72688
72712
72735
72764
72786
72785
72771
72753
72783
72782
72786
72771
72786
72829
72816
72859
72886
72893
72914
72924
72933
72950
72968
72982
73017
73011
73020
73042
73052
73060
73097
73087
73066
73007
72866
72716
72584
72525
72491
72468
72467
72494
72484
72492
72494
72520
72585
72599
72602
72624
72631
72626
72629
72626
72659
72654
72682
72693
72742
72745
72764
72800
72814
72846
72867
72852
72882
72910
72936
72940
72967
72991
73024
73046
73069
73104
73114
73081
72982
72847
72727
72653
72614
72612
72606
72621
72633
72628
72668
72698
72706
72754
72785
72800
72806
72795
72803
72820
72816
72831
72853
72860
72889
72887
72911
72925
72944
72962
72967
73000
73029
73047
73068
73075
73121
73142
73172
73173
73195
73210
73227
73245
73252
73188
73058
72935
72844
72790
72742
72753
72736
72756
72763
72758
72769
72799
72826
72856
72875
72886
72884
72887
72912
72908
72918
72941
72955
72980
72977
73005
73021
73057
73085
73128
73148
73142
73198
73215
73217
73264
73271
73296
73324
73332
73329
73358
73406
73416
73406
73385
73268
73152
73033
72977
72926
72910
72906
72916
72917
72926
72948
72957
72982
72987
73008
73005
73011
73024
73007
73006
73022
73044
73046
73055
73085
73084
73102
73116
73135
73136
73163
73167
73198
73184
73206
73228
73245
73279
73280
73295
73319
73336
73336
73302
73187
73066
72973
72920
72881
72873
72871
72890
72896
72920
72926
72963
72975
73007
73004
73030
73002
72995
73005
73014
73015
73024
73033
73064
73063
73089
73096
73113
73129
73137
73157
73174
73209
73208
73217
73245
73254
73279
73294
73298
73267
73145
73020
72915
72859
72841
72828
72817
72821
72836
72847
72855
72851
72886
72886
72912
72899
72888
72881
72873
72862
72880
72897
72899
72909
72931
72931
72942
72964
72979
72999
73021
73031
73042
73061
73073
73088
73102
73105
73153
73178
73217
73205
73144
73005
72849
72757
72719
72677
72679
72677
72675
72684
72687
72702
72724
72748
72773
72802
72797
72832
72821
72796
72793
72822
72835
72854
72862
72897
72903
72920
72915
72949
72962
72990
73002
73016
73027
73045
73068
73099
73109
73126
73161
73181
73183
73206
73214
73256
73276
73299
73285
73253
73087
72950
72840
72768
72723
72725
72695
72727
72726
72749
72748
72762
72794
72816
72848
72857
72864
72832
72844
72856
72853
72869
72871
72904
72903
72925
72935
72965
72987
72997
73026
73042
73055
73084
73116
73146
73156
73185
73220
73242
73249
73286
73307
73318
73334
73332
73368
73393
73368
73282
73150
73024
72926
72871
72838
72840
72844
72870
72883
72891
72905
72910
72950
72969
72978
72978
72983
72962
72962
72967
72984
72990
73004
73007
73031
73022
73048
73070
73084
73084
73112
73120
73117
73148
73196
73182
73220
73233
73245
73259
73270
73298
73300
73318
73291
73217
73072
72981
72883
72825
72794
72787
72757
72769
72755
72789
72790
72802
72809
72827
72812
72811
72811
72806
72830
72874
72916
72931
72965
72957
72967
72968
72957
72982
72962
72994
72975
72938
72887
72791
72731
72707
72691
72714
72714
72742
72765
72748
72661
72526
72408
72314
72272
72225
72090
72333
72641
72801
72678
72047
73372
76097
73215
70705
71891
71805
71660
72041
73143
74068
74506
74848
75274
75651
76017
76641
76786
76432
76142
76176
76126
76115
76150
76087
76015
75878
75787
75766
75636
75564
74687
73586
72815
72399
72107
72233
72879
73559
73946
74181
74409
74502
74677
74784
74865
74906
75005
74967
74962
74975
74998
75016
75054
75068
75108
75139
75179
75199
75259
75266
75290
75253
75209
75191
75201
75176
75142
75088
74964
74774
74567
74386
74304
74261
74208
74189
74085
73996
73868
73642
73456
73338
73219
73163
73155
73178
73164
73203
73340
73509
73902
73700
73629
73728
73708
73294
73195
73077
73036
73098
73204
73400
73623
73736
73855
73724
73512
73510
73556
73457
73531
73599
73699
74019
74120
71742
71661
72142
71913
71798
71764
71329
71030
70837
70756
70686
70599
70535
70571
70635
70667
70935
71136
71249
71303
71359
71452
71507
71531
71573
71641
71689
71731
71740
71739
71651
71605
71545
71339
71067
70797
70587
70543
70565
70589
70596
70608
70624
70619
70577
70617
70626
70628
70618
70637
70609
70619
70601
70658
70707
70612
70561
70477
70439
70402
70353
70326
70364
70421
70534
70688
70916
71122
71292
71469
71600
71656
71704
71726
71775
71759
71743
71695
71584
71458
71397
71326
71302
71301
71281
71262
71262
71279
71272
71285
71298
71299
71294
71290
71263
71243
71231
71232
71220
71234
71228
71229
71232
71242
71246
71259
71276
71301
71314
71337
71363
71378
71412
71430
71450
71487
71513
71529
71543
71557
71587
71620
71609
71522
71416
71307
71246
71213
71197
71213
71244
71256
71279
71297
71311
71326
71358
71415
71420
71417
71438
71438
71452
71482
71484
71520
71516
71539
71558
71562
71585
71619
71623
71658
71684
71710
71710
71754
71789
71797
71828
71837
71872
71888
71932
71948
71945
71982
71997
72017
72033
72035
72027
71938
71822
71699
71645
71621
71594
71580
71566
71608
71615
71631
71650
71686
71705
71729
71748
71753
71774
71773
71764
71779
71791
71796
71828
71821
71837
71880
71873
71905
71913
71947
71955
71959
71981
71992
72034
72037
72074
72079
72124
72137
72145
72161
72172
72202
72215
72233
72218
72173
72071
71947
71857
71812
71781
71771
71778
71777
71787
71800
71786
71847
71859
71861
71884
71864
71875
71850
71837
71870
71861
71880
71891
71902
71913
71915
71912
71934
71951
71970
71961
71983
72000
72009
72029
72059
72065
72071
72093
72107
72119
72117
72070
71966
71876
71795
71728
71711
71699
71697
71718
71718
71736
71732
71766
71790
71824
71836
71815
71797
71818
71787
71817
71807
71819
71839
71834
71865
71844
71863
71868
71909
71892
71913
71891
71924
71957
71947
71977
71982
72000
72036
71993
71899
71773
71680
71603
71564
71543
71545
71542
71553
71571
71570
71566
71597
71632
71637
71650
71651
71639
71647
71651
71658
71671
71669
71673
71713
71703
71728
71749
71755
71768
71808
71821
71822
71862
71880
71902
71917
71972
71963
72000
71998
72036
72068
72079
72033
71907
71770
71676
71608
71555
71546
71522
71518
71521
71539
71540
71550
71558
71614
71620
71634
71632
71632
71610
71629
71646
71647
71665
71671
71680
71692
71714
71734
71731
71752
71784
71816
71800
71836
71863
71895
71904
71913
71933
71971
71984
72018
72037
72065
72015
71911
71772
71673
71597
71583
71551
71523
71536
71541
71555
71562
71583
71615
71642
71654
71647
71654
71652
71672
71634
71654
71672
71683
71690
71712
71731
71747
71776
71778
71786
71814
71843
71856
71873
71884
71900
71935
71956
71973
71977
72008
72014
72033
72042
71984
71851
71720
71635
71586
71574
71565
71559
71590
71622
71614
71634
71665
71699
71706
71704
71732
71699
71697
71697
71716
71702
71728
71761
71763
71768
71801
71817
71819
71839
71857
71883
71894
71903
71939
71969
71975
71991
72005
72029
72029
72020
71949
71835
71710
71638
71610
71600
71626
71613
71621
71635
71645
71664
71688
71728
71738
71750
71746
71747
71734
71708
71696
71684
71702
71717
71714
71733
71734
71749
71776
71789
71787
71816
71816
71844
71863
71883
71880
71916
71914
71933
71968
71953
71865
71768
71644
71569
71529
71491
71497
71486
71501
71507
71504
71544
71574
71590
71633
71640
71651
71638
71638
71628
71655
71660
71682
71695
71709
71706
71726
71733
71782
71768
71792
71819
71846
71858
71869
71898
71931
71941
71974
71977
71996
72030
72047
72075
72072
72106
72131
72145
72129
72029
71870
71781
71698
71653
71654
71655
71621
71645
71651
71668
71670
71693
71729
71752
71763
71784
71775
71775
71790
71772
71800
71821
71822
71849
71872
71881
71912
71925
71950
71985
72009
72025
72058
72072
72091
72120
72156
72171
72190
72231
72241
72254
72278
72283
72321
72351
72343
72311
72185
72052
71963
71926
71889
71864
71887
71894
71906
71896
71925
71940
71973
71992
71987
71991
72001
71974
71977
71966
71990
72000
72010
72038
72060
72069
72062
72047
72099
72110
72129
72149
72142
72170
72183
72210
72230
72235
72250
72255
72288
72296
72326
72283
72177
72070
71940
71904
71853
71840
71836
71849
71856
71849
71874
71892
71924
71969
71967
71962
71979
71954
71961
71965
71971
71982
72002
72006
72019
72021
72061
72070
72072
72074
72100
72125
72135
72157
72164
72193
72180
72202
72208
72236
72250
72250
72190
72085
71961
71856
71779
71744
71755
71745
71757
71772
71766
71766
71782
71816
71836
71857
71867
71884
71841
71843
71849
71878
71881
71891
71904
71923
71938
71949
71957
71981
72024
72037
72048
72095
72103
72143
72168
72172
72226
72231
72264
72285
72309
72327
72361
72370
72374
72275
72143
72025
71939
71890
71869
71861
71839
71855
71843
71867
71882
71885
71934
71975
71981
71990
71991
71987
71995
72006
72010
72004
72037
72062
72096
72094
72098
72131
72129
72177
72196
72213
72235
72261
72274
72319
72331
72358
72383
72417
72425
72451
72453
72472
72495
72504
72525
72538
72538
72484
72354
72225
72128
72043
72013
72011
72044
72032
72052
72056
72070
72087
72123
72150
72152
72153
72160
72134
72144
72146
72177
72159
72171
72169
72199
72196
72237
72247
72248
72245
72304
72306
72329
72344
72356
72388
72405
72433
72450
72460
72468
72507
72514
72516
72543
72492
72386
72252
72164
72105
72065
72057
72052
72088
72090
72120
72104
72115
72161
72180
72187
72199
72197
72186
72206
72199
72210
72215
72238
72249
72257
72262
72316
72307
72323
72337
72354
72355
72385
72387
72410
72418
72430
72458
72448
72475
72494
72495
72485
72386
72278
72160
72073
72035
72029
72039
72017
72030
72022
72034
72058
72081
72102
72142
72129
72133
72139
72138
72135
72147
72146
72175
72169
72186
72190
72217
72224
72245
72246
72259
72292
72311
72340
72364
72379
72412
72418
72441
72471
72487
72513
72522
72546
72560
72566
72610
72593
72510
72359
72242
72159
72097
72077
72043
72043
72052
72045
72046
72065
72067
72103
72129
72151
72133
72150
72150
72136
72133
72146
72164
72175
72170
72200
72178
72217
72238
72261
72271
72283
72307
72318
72344
72376
72388
72407
72420
72435
72454
72494
72502
72540
72565
72556
72576
72614
72623
72593
72489
72355
72239
72149
72095
72086
72053
72062
72073
72083
72084
72083
72126
72151
72158
72153
72188
72181
72173
72162
72155
72179
72181
72199
72212
72225
72228
72254
72254
72277
72292
72294
72317
72340
72356
72369
72391
72410
72431
72439
72460
72460
72468
72490
72513
72494
72416
72295
72173
72107
72032
71993
71987
71988
71979
72000
71999
72022
72058
72079
72107
72123
72133
72128
72101
72084
72107
72121
72132
72138
72139
72162
72158
72189
72196
72216
72222
72235
72254
72267
72286
72298
72336
72343
72348
72365
72392
72395
72377
72283
72159
72027
71937
71881
71862
71860
71858
71844
71855
71868
71877
71915
71927
71946
71929
71944
71945
71919
71938
71940
71960
71967
71957
71987
72004
72017
72036
72056
72084
72085
72111
72115
72154
72158
72182
72217
72218
72263
72286
72316
72333
72323
72248
72130
71982
71891
71816
71796
71781
71765
71777
71788
71802
71800
71820
71859
71899
71900
71903
71913
71915
71903
71919
71930
71932
71940
71983
71976
71997
72021
72042
72050
72083
72099
72137
72136
72168
72202
72201
72232
72243
72278
72281
72307
72326
72362
72376
72367
72411
72417
72355
72203
72055
71956
71898
71849
71850
71857
71862
71864
71895
71890
71904
71938
71979
72004
72020
72033
72031
72029
72027
72039
72059
72051
72074
72092
72100
72129
72151
72161
72192
72195
72209
72255
72270
72274
72302
72323
72364
72357
72371
72398
72417
72415
72454
72460
72459
72492
72482
72411
72276
72160
72044
71999
71981
71954
71959
71961
71962
71983
72006
72012
72043
72069
72063
72078
72073
72070
72060
72064
72078
72079
72087
72093
72106
72130
72137
72175
72175
72199
72201
72252
72244
72252
72261
72289
72305
72324
72326
72326
72359
72368
72396
72407
72347
72227
72085
71986
71936
71893
71884
71893
71888
71909
71920
71937
71942
71993
72009
72006
72018
72015
72005
71998
72005
71999
71997
71997
72017
72028
72049
72057
72092
72080
72090
72118
72129
72150
72162
72168
72191
72216
72230
72250
72239
72252
72262
72174
72026
71916
71809
71761
71713
71698
71723
71720
71708
71740
71726
71749
71787
71828
71836
71831
71827
71832
71835
71830
71833
71845
71873
71865
71893
71913
71930
71926
71957
71987
72009
72018
72052
72078
72091
72122
72156
72158
72219
72233
72249
72260
72269
72306
72333
72331
72372
72290
72175
72017
71924
71871
71840
71807
71822
71806
71806
71840
71846
71855
71894
71925
71944
71942
71972
71954
71950
71942
71966
71954
71980
