73915
73941
73958
73949
73889
73733
73582
73465
73400
73339
73313
73324
73327
73328
73369
73382
73408
73460
73490
73519
73522
73535
73535
73569
73577
73604
73635
73652
73698
73701
73742
73778
73792
73830
73859
73870
73903
73939
73972
74007
73959
73828
73660
73529
73439
73383
73376
73358
73379
73427
73440
73479
73532
73565
73590
73620
73624
73638
73643
73646
73686
73708
73739
73757
73798
73808
73860
73884
73916
73941
73958
73991
74025
74042
74095
74123
74136
74167
74196
74219
74244
74269
74325
74384
74401
74349
74200
74027
73885
73794
73775
73738
73741
73746
73774
73799
73801
73821
73816
73868
73931
73948
73953
73973
73987
74017
74057
74078
74102
74119
74156
74199
74234
74269
74279
74313
74332
74360
74400
74406
74431
74469
74496
74517
74534
74571
74607
74621
74581
74467
74310
74181
74101
74052
74023
74008
74039
74046
74098
74108
74163
74185
74241
74257
74279
74282
74294
74299
74313
74342
74356
74377
74400
74441
74453
74499
74512
74555
74590
74595
74633
74644
74650
74694
74700
74736
74777
74789
74803
74764
74650
74482
74366
74262
74233
74231
74232
74222
74258
74290
74317
74361
74392
74394
74424
74437
74431
74413
74450
74431
74462
74498
74510
74529
74533
74545
74561
74588
74615
74635
74641
74654
74680
74689
74702
74655
74560
74398
74297
74195
74172
74147
74141
74167
74184
74197
74222
74255
74297
74328
74332
74359
74333
74351
74358
74371
74413
74417
74424
74460
74485
74517
74529
74542
74544
74571
74592
74624
74633
74576
74437
74281
74188
74117
74086
74078
74092
74098
74124
74113
74148
74171
74206
74232
74236
74231
74222
74221
74236
74245
74273
74294
74297
74309
74334
74336
74368
74373
74378
74350
74371
74390
74397
74327
74163
74004
73894
73789
73775
73735
73719
73753
73735
73759
73782
73824
73840
73871
73903
73890
73893
73883
73903
73918
73923
73959
73984
74010
74041
74059
74085
74085
74106
74138
74135
74155
74178
74180
74208
74220
74241
74248
74278
74282
74320
74356
74377
74364
74237
74042
73872
73746
73652
73634
73625
73633
73620
73670
73687
73709
73761
73810
73817
73853
73843
73853
73861
73869
73886
73906
73925
73961
73979
73994
74027
74050
74073
74110
74143
74143
74171
74192
74213
74249
74293
74311
74344
74372
74397
74415
74465
74500
74528
74567
74610
74632
74661
74629
74522
74333
74188
74086
74046
74029
74032
74018
74038
74056
74079
74114
74149
74175
74189
74239
74225
74244
74248
74270
74300
74308
74334
74375
74393
74408
74459
74483
74504
74533
74572
74594
74633
74679
74686
74731
74775
74796
74816
74847
74875
74909
74928
74954
74950
75002
75006
75046
75039
74950
74826
74667
74561
74486
74456
74449
74458
74463
74478
74508
74515
74541
74588
74612
74647
74648
74633
74631
74664
74685
74679
74708
74714
74751
74763
74784
74786
74811
74824
74862
74861
74903
74920
74917
74956
74972
74985
74980
75009
75034
75066
75085
75026
74914
74792
74690
74614
74585
74565
74560
74593
74596
74613
74637
74687
74708
74735
74730
74731
74728
74721
74739
74726
74746
74759
74772
74783
74811
74822
74836
74863
74883
74884
74903
74920
74922
74938
74970
74985
74945
74832
74700
74582
74478
74453
74439
74429
74440
74454
74462
74481
74494
74541
74560
74575
74582
74587
74554
74558
74564
74570
74597
74617
74606
74611
74619
74599
74566
74574
74574
74552
74564
74555
74553
74529
74428
74305
74178
74096
74035
74024
73979
73974
73971
73971
73993
74030
74050
74088
74115
74133
74134
74153
74138
74145
74153
74173
74196
74228
74230
74279
74298
74326
74318
74347
74362
74402
74409
74451
74460
74469
74499
74518
74535
74564
74597
74601
74561
74436
74258
74103
74025
73951
73938
73903
73902
73917
73904
73940
73955
73971
73990
74040
74056
74051
74062
74088
74057
74070
74085
74111
74135
74182
74192
74207
74236
74270
74281
74314
74330
74355
74364
74366
74422
74423
74438
74460
74491
74485
74453
74386
74322
74285
74211
74085
73821
73529
73238
73076
73053
73091
73135
73161
73220
73280
73329
73382
73438
73494
73529
73568
73567
73571
73570
73554
73533
73514
73454
73379
73245
73204
73110
73046
73020
73003
72967
73014
73085
73133
73222
73163
73112
73061
73027
72917
72950
73056
73161
73320
73474
73469
73384
73229
73081
72932
72828
72734
72644
72567
72167
72483
73919
74332
75121
78856
76737
76263
76241
74557
75007
75154
75133
74928
74780
76003
76807
77667
78195
78904
78874
78683
78566
79085
78648
78133
73782
73366
73903
75206
76377
75823
74085
73298
74068
74816
72325
71320
72874
75403
75924
76129
76317
76500
77026
77070
77015
77064
77091
77033
76932
76831
76805
76781
76751
76754
76500
76264
76054
75861
75688
75638
75579
75463
75347
75143
74967
74789
74684
74608
74568
74565
74540
74543
74531
74524
74552
74568
74592
74614
74602
74610
74587
74581
74575
74593
74598
74611
74649
74662
74684
74718
74737
74774
74806
74802
74823
74736
74594
74459
74365
74333
74304
74283
74292
74287
74319
74318
74373
74380
74421
74459
74503
74528
74530
74557
74563
74560
74600
74619
74665
74693
74718
74771
74812
74814
74837
74874
74901
74927
74955
74946
74982
75029
75048
75061
75051
74978
74836
74696
74600
74553
74509
74498
74484
74510
74544
74519
74554
74566
74598
74631
74647
74669
74671
74683
74706
74735
74742
74751
74776
74778
74814
74825
74860
74870
74888
74916
74937
74969
74999
75016
75059
75085
75118
75148
75186
75232
75236
75290
75334
75390
75407
75391
75277
75139
74996
74938
74917
74899
74900
74929
74946
74959
75006
75020
75041
75079
75106
75124
75113
75131
75130
75129
75106
75115
75118
75133
75151
75161
75179
75207
75247
75254
75292
75311
75340
75342
75383
75394
75398
75373
75292
75255
75291
75330
75362
75350
75279
75145
75003
74905
74865
74863
74859
74853
74884
74904
74917
74939
74961
74964
74964
74939
74931
74900
74892
74906
74922
74935
74946
74972
74976
74999
75001
75012
75037
75058
75058
75076
75094
75116
75108
75138
75143
75145
75135
75058
74920
74830
74743
74724
74704
74699
74721
74737
74759
74797
74848
74890
74914
74906
74901
74865
74860
74855
74845
74818
74771
74769
74757
74792
74821
74848
74888
74913
74879
74892
74894
74891
74905
74914
74913
74863
74728
74620
74521
74467
74417
74406
74392
74392
74381
74349
74372
74368
74392
74372
74366
74339
74341
74327
74317
74332
74365
74399
74434
74466
74487
74529
74557
74573
74631
74635
74613
74579
74575
74573
74590
74628
74676
74745
74752
74719
74648
74512
74403
74328
74299
74267
74245
74243
74229
74221
74246
74280
74320
74360
74387
74439
74467
74484
74489
74490
74525
74541
74597
74635
74690
74735
74751
74754
74773
74808
74824
74870
74915
74920
74956
74998
75007
75036
75060
75074
75131
75161
75252
75301
75358
75418
75437
75406
75290
75175
75054
74972
74943
74934
74914
74947
74930
74944
74959
74988
74990
75018
75050
75069
75064
75074
75061
75075
75088
75092
75115
75121
75124
75179
75195
75201
75222
75258
75267
75281
75278
75290
75327
75334
75363
75380
75408
75438
75460
75503
75524
75534
75584
75625
75624
75604
75477
75341
75215
75165
75100
75082
75074
75079
75099
75128
75123
75144
75168
75195
75212
75226
75207
75213
75192
75202
75230
75218
75230
75248
75256
75271
75271
75296
75315
75327
75343
75351
75361
75366
75382
75390
75390
75415
75433
75435
75452
75484
75478
75484
75436
75322
75190
75080
75003
74982
74965
74975
74980
75004
75004
75002
75016
75036
75069
75083
75078
75072
75062
75055
75077
75064
75078
75078
75092
75124
75136
75153
75180
75201
75202
75224
75231
75251
75261
75285
75288
75296
75320
75307
75189
75080
74935
74869
74831
74807
74809
74816
74818
74832
74835
74867
74913
74924
74952
74943
74945
74916
74934
74925
74936
74957
74981
74983
74999
75031
75022
75036
75055
75073
75098
75107
75123
75112
75077
75082
75075
75066
75040
74989
74826
74649
74528
74428
74378
74323
74293
74284
74272
74267
74261
74269
74301
74305
74323
74331
74335
74311
74304
74319
74305
74343
74367
74382
74397
74422
74429
74434
74460
74472
74498
74498
74509
74502
74539
74548
74547
74569
74590
74618
74641
74658
74690
74740
74745
74761
74812
74827
74832
74794
74663
74520
74413
74329
74300
74290
74312
74296
74312
74318
74329
74347
74376
74397
74440
74448
74465
74478
74474
74515
74514
74539
74558
74607
74647
74659
74700
74733
74748
74769
74809
74812
74861
74885
74886
74936
74949
74993
75005
75049
75064
75098
75096
75117
75156
75165
75192
75228
75256
75229
75095
74980
74850
74774
74730
74728
74731
74741
74741
74770
74813
74830
74875
74906
74953
74979
74960
74974
74961
74968
75006
75018
75054
75056
75084
75084
75120
75156
75140
75184
75172
75200
75208
75245
75264
75254
75272
75303
75315
75329
75372
75386
75396
75404
75428
75436
75462
75476
75439
75373
75246
75105
75027
74976
74929
74931
74935
74946
74971
74957
74988
75026
75044
75073
75071
75059
75044
75035
75020
75026
75029
75014
75049
75039
75053
75071
75067
75080
75063
75090
75094
75108
75119
75131
75139
75176
75158
75147
75138
75150
75171
75146
75059
74903
74765
74687
74653
74626
74624
74614
74608
74619
74637
74638
74652
74709
74723
74721
74721
74717
74700
74695
74704
74722
74741
74739
74761
74764
74766
74798
74821
74816
74840
74849
74872
74881
74892
74877
74896
74907
74888
74860
74753
74616
74475
74384
74337
74305
74289
74271
74271
74272
74257
74258
74280
74323
74309
74273
74253
74221
74224
74182
74161
74170
74176
74180
74175
74193
74200
74202
74207
74216
74209
74221
74249
74281
74310
74349
74356
74391
74390
74406
74428
74433
74472
74475
74504
74466
74362
74191
74040
73951
73917
73906
73879
73871
73894
73891
73903
73920
73957
74009
74053
74080
74119
74141
74134
74161
74189
74222
74255
74278
74296
74315
74343
74384
74393
74425
74445
74484
74514
74552
74579
74616
74641
74653
74697
74720
74723
74769
74810
74815
74845
74874
74902
74922
74979
74994
75008
74976
74827
74687
74531
74464
74394
74365
74359
74362
74371
74367
74372
74410
74445
74465
74482
74494
74491
74488
74483
74499
74504
74519
74528
74527
74581
74585
74612
74610
74633
74662
74656
74691
74722
74728
74778
74790
74815
74853
74877
74924
74926
74975
74992
75054
75063
75089
75107
75150
75173
75169
75145
75020
74869
74755
74693
74645
74619
74625
74623
74649
74664
74671
74720
74744
74783
74817
74814
74812
74812
74798
74819
74829
74845
74862
74879
74893
74890
74916
74942
74947
74959
74975
74996
74999
75037
75038
75073
75080
75100
75127
75160
75161
75173
75197
75216
75199
75120
74976
74836
74735
74676
74674
74657
74670
74674
74695
74699
74727
74751
74796
74801
74816
74801
74773
74773
74763
74770
74792
74798
74791
74828
74832
74842
74894
74892
74920
74917
74925
74950
74966
74999
75001
75018
75044
75065
75058
75000
74875
74732
74667
74591
74544
74543
74564
74572
74578
74599
74616
74644
74683
74700
74694
74717
74711
74698
74682
74720
74721
74737
74744
74778
74785
74802
74823
74829
74853
74880
74865
74887
74889
74888
74913
74915
74944
74948
74948
74941
74826
74692
74553
74470
74422
74405
74393
74380
74412
74391
74380
74417
74440
74474
74470
74503
74471
74493
74478
74474
74489
74502
74503
74527
74544
74558
74578
74593
74616
74632
74657
74673
74687
74708
74722
74748
74781
74815
74836
74848
74879
74917
74936
74950
74961
74993
75009
75022
75063
75064
75040
74919
74757
74617
74525
74483
74477
74429
74435
74436
74431
74455
74470
74487
74524
74553
74577
74600
74619
74602
74613
74635
74631
74654
74662
74675
74704
74727
74740
74773
74792
74819
74823
74827
74871
74892
74920
74941
74983
74978
75000
75031
75063
75089
75080
75089
75141
75167
75180
75213
75223
75236
75167
75033
74869
74761
74692
74644
74621
74629
74647
74628
74653
74664
74671
74715
74753
74787
74793
74802
74808
74811
74840
74854
74855
74877
74931
74929
74971
75005
75027
75033
75062
75079
75105
75119
75152
75179
75186
75222
75232
75248
75300
75328
75351
75339
75368
75370
75400
75424
75441
75371
75242
75092
74998
74944
74914
74898
74907
74912
74938
74964
74978
74995
75039
75067
75062
75075
75065
75054
75048
75052
75054
75082
75099
75108
75118
75124
75146
75148
75177
75180
75204
75214
75237
75253
75290
75301
75327
75322
75316
75360
75389
75393
75364
75299
75152
75009
74931
74893
74894
74893
74879
74885
74906
74912
74935
74969
75011
75022
75029
75001
75013
74978
75004
75019
75033
75035
75067
75101
75093
75119
75125
75144
75175
75199
75211
75210
75233
75253
75258
75294
75315
75339
75322
75267
75131
74998
74911
74869
74846
74850
74851
74861
74882
74900
74898
74922
74964
74959
75012
74984
74961
74944
74924
74940
74913
74917
74931
74909
74918
74910
74926
74935
74948
74946
74965
74979
74968
74992
75024
75038
75058
75086
75107
75099
75102
75118
75111
75148
75144
75064
74936
74780
74691
74642
74621
74607
74606
74630
74632
74623
74656
74679
74713
74729
74769
74773
74757
74776
74765
74778
74773
74782
74816
74839
74848
74882
74881
74921
74935
74929
74965
74974
75018
75027
75055
75084
75103
75136
75162
75164
75190
75223
75247
75277
75289
75316
75348
75356
75369
75417
75450
75425
75327
75194
75051
74970
74920
74900
74923
74902
74904
74915
74934
74928
74968
75001
75026
75054
75062
75072
75069
75066
75061
75070
75084
75112
75129
75150
75159
75171
75210
75221
75251
75270
75294
75312
75346
75409
75428
75446
75467
75528
75549
75574
75591
75592
75639
75661
75680
75690
75711
75726
75757
75734
75629
75456
75340
75274
75231
75229
75210
75203
75231
75234
75232
75263
75285
75317
75322
75346
75333
75327
75312
75325
75327
75338
75357
75324
75385
75393
75386
75421
75419
75426
75451
75459
75465
75493
75487
75513
75531
75559
75558
75569
75586
75595
75611
75629
75628
75596
75490
75339
75226
75172
75144
75126
75128
75138
75150
75152
75184
75217
75231
75270
75288
75275
75263
75259
75252
75253
75270
75289
75281
75300
75317
75327
75342
75360
75394
75404
75405
75425
75454
75473
75470
75507
75514
75537
75554
75569
75571
75460
75355
75235
75131
75091
75079
75077
75085
75092
75096
75114
75136
75138
75189
75214
75227
75218
75211
75210
75195
75207
75219
75213
75210
75222
75224
75230
75247
75230
75229
75238
75245
75233
75261
75271
75286
75291
75324
75339
75327
75347
75383
75386
75325
75189
75082
74957
74923
74903
74879
74884
74891
74888
74914
74923
74942
74988
75018
75043
75029
75034
75012
75010
75015
74989
75017
75019
75049
75066
75088
75082
75131
75144
75185
75174
75196
75233
75260
75267
75277
75320
75340
75343
75385
75394
75392
75412
75431
75467
75472
75510
75508
75530
75548
75574
75590
75518
75386
75243
75114
75045
75026
75014
75008
75000
75018
75029
75036
75041
75086
75127
75130
75126
75152
75142
75140
75145
75133
75151
75167
75173
75185
75207
75219
75229
75269
75276
75291
75288
75351
75361
75364
75400
75453
75470
75484
75502
75512
75570
75590
75611
75615
75638
75657
75685
75703
75724
75743
75728
75688
75520
75378
75284
75211
75185
75174
75178
75184
75186
75188
75198
75225
75239
75264
75280
75290
75267
75274
75264
75256
75285
75283
75273
75298
75305
75301
75331
75348
75350
75347
75368
75388
75404
75418
75436
75460
75462
75489
75497
75535
75547
75529
75539
75554
75570
75598
75631
75609
75511
75372
75240
75153
75090
75069
75058
75068
75089
75072
75103
75118
75124
75142
75177
75181
75183
75151
75144
75137
75125
75139
75166
75173
75189
75208
75208
75218
75243
75252
75268
75299
75310
75323
75356
75371
75383
75391
75409
75453
75444
75445
75413
75316
75151
75024
74965
74924
74908
74907
74929
74950
74947
74945
74934
74971
74992
75002
74974
74976
74962
74939
74932
74924
74963
74948
74920
74867
74808
74770
74773
74776
74783
74792
74799
74824
74865
74933
74974
75031
75097
75128
75169
75185
75221
75218
75236
75204
75074
74922
74782
74707
74673
74670
74655
74672
74691
74677
74680
74689
74714
74759
74782
74794
74762
74743
74724
74697
74715
74737
74749
74737
74733
74746
74737
74743
74764
74787
74833
74866
74878
74906
74936
74956
74984
75013
75033
75068
75099
75104
75145
75153
75174
75200
75245
75259
75301
75352
75372
75374
75283
75124
74971
74848
74794
74750
74743
74749
74757
74778
74789
74795
74846
74849
74908
74927
74934
74952
74930
74924
74929
74935
74972
74971
74974
74983
75008
75040
75055
75073
75112
75127
75162
75191
75223
75225
75239
75277
75319
75306
75334
75389
75395
75409
75433
75449
75438
75476
75480
75497
75529
75508
75497
75387
75226
75081
74998
74936
74923
74920
74940
74952
74978
74994
75015
75029
75075
75088
75100
75111
75081
75060
75058
75061
75068
75092
75092
75111
75128
75134
75163
75169
75189
75183
75220
75233
75239
75264
75278
75289
75309
75335
75346
75362
75385
75391
75404
75419
75426
75434
75342
75201
75058
74955
74900
74889
74882
74857
74904
74892
74913
74930
74963
74977
75017
75021
75018
75000
75003
74985
74995
75002
75013
75037
75036
75070
75054
75091
75082
75116
75125
75138
75154
75172
75191
75199
75229
75241
75255
75280
75300
75286
75202
75068
74916
74817
74768
74723
74729
74717
74730
74747
74753
74755
74791
74812
74855
74842
74851
74838
74799
74811
74797
74818
74827
74852
74873
74875
74870
74886
74888
74884
74894
74898
74912
74926
74937
74947
74959
74968
74981
74983
75017
75029
75026
74971
74836
74679
74541
74482
74437
74418
74433
74431
74448
74418
74437
74474
74495
74533
74545
74553
74559
74554
74519
74533
74543
74548
74572
74573
74584
74602
74603
74653
74656
74668
74710
74711
74723
74762
74791
74814
74830
74821
74868
74876
74914
74934
74960
74965
74991
75010
75050
75055
75096
75104
75119
75103
74993
74818
74637
74539
74478
74451
74457
74431
74446
74434
74474
74483
74509
74548
74569
74587
74620
74621
74626
74640
74629
74647
74670
74662
74690
74681
74731
74752
74776
74803
74809
74854
74850
74890
74920
74973
74977
75035
75061
75079
75126
75171
75204
75228
75288
75289
75340
75395
75414
75421
75439
75449
75420
75290
75144
75007
74918
74879
74870
74864
74880
74902
74910
74912
74927
74933
74991
75015
75028
75021
75015
74993
74994
75003
74996
75017
75027
75023
75049
75051
75062
75056
75071
75093
75103
75122
75160
75168
75202
75252
75247
75268
75280
75296
75343
75355
75374
75370
75415
75405
75351
75195
75065
74979
74948
74922
74926
74907
74946
74941
74949
74954
74986
75025
75041
75047
75050
75028
75019
75015
75013
75013
75018
75033
75046
75048
75075
75112
75103
75146
75163
75185
75214
75227
75258
75272
75302
75317
75326
75339
75332
75353
75365
75303
75153
75027
74905
74856
74813
74806
74798
74793
74831
74830
74857
74874
74947
75005
75020
75027
75018
75019
74993
74999
75014
74991
75015
75004
75016
75043
75037
75046
75060
75072
75069
75081
75095
75114
75140
75128
75151
75157
75164
75173
75204
75232
75250
75249
75165
75011
74873
74760
74715
74706
74702
74731
74729
74724
74719
74708
74732
74773
74785
74803
