80707
80696
80693
80699
80698
80709
80700
80703
80697
80702
80681
80682
80696
80672
80671
80661
80672
80659
80662
80655
80666
80667
80663
80666
80663
80655
80662
80655
80651
80666
80698
80710
80721
80728
80728
80717
80704
80717
80713
80709
80697
80685
80685
80670
80681
80682
80693
80679
80690
80696
80687
80690
80688
80678
80676
80676
80690
80687
80685
80689
80683
80707
80692
80691
80686
80688
80673
80671
80659
80645
80639
80676
80693
80678
80699
80681
80696
80725
80647
79975
80083
80116
80122
80110
80095
80071
80042
80059
80039
80030
80024
80029
80022
80052
80066
80092
80132
80128
80145
80124
80108
80125
80117
80114
80132
80129
80134
80111
80048
80015
79986
79974
79968
79965
79822
79911
79933
79943
79973
79969
79947
79931
79941
79915
79908
79894
79899
79898
79921
79900
79932
79927
79939
79954
79971
79977
80005
80032
80031
80047
80016
79976
79911
79895
79861
79863
79863
79876
79852
79883
79880
79896
79920
79923
79947
79922
79952
79947
79947
79967
79975
79960
79977
79999
80041
80034
80048
80043
80075
80074
80112
80100
80113
80061
80007
79951
79923
79905
79911
79915
79924
79907
79929
79940
79961
79976
79994
80005
80015
80028
80022
80018
80025
80023
80022
80046
80039
80057
80068
80084
80098
80098
80110
80120
80124
80145
80137
80182
80206
80191
80206
80207
80241
80238
80231
80243
80273
80258
80207
80141
80117
80076
80053
80041
80039
80051
80071
80076
80078
80128
80147
80162
80150
80136
80131
80153
80173
80168
80173
80165
80172
80190
80212
80216
80252
80236
80237
80278
80289
80302
80301
80314
80331
80345
80326
80344
80368
80373
80353
80306
80232
80195
80223
80222
80212
80219
80220
80261
80261
80262
80267
80278
80282
80281
80284
80275
80287
80292
80322
80317
80314
80326
80344
80360
80381
80373
80381
80402
80392
80387
80396
80430
80439
80434
80475
80461
80468
80445
80381
80332
80271
80237
80225
80237
80256
80254
80279
80256
80290
80289
80303
80301
80302
80320
80299
80330
80330
80312
80361
80356
80359
80375
80394
80406
80383
80416
80431
80418
80435
80430
80459
80456
80482
80488
80471
80497
80511
80510
80541
80523
80492
80416
80352
80324
80297
80250
80264
80262
80270
80283
80294
80299
80323
80346
80339
80354
80345
80339
80355
80354
80353
80368
80387
80394
80410
80405
80431
80424
80444
80445
80476
80442
80464
80521
80513
80524
80547
80547
80554
80577
80562
80606
80588
80583
80619
80640
80579
80522
80444
80395
80362
80368
80348
80363
80347
80383
80385
80392
80402
80418
80423
80431
80423
80415
80419
80438
80441
80437
80461
80471
80458
80476
80494
80503
80546
80533
80537
80555
38059
80573
80599
80593
80618
80628
80649
80629
80649
80678
80671
80676
80670
80678
80658
80556
80502
80460
80439
80435
80434
80437
80444
80476
80448
80464
80481
80498
80490
80501
80498
80504
80500
80507
80532
80526
80527
80538
80548
80535
80533
80559
80600
80603
80585
80593
80617
80655
80625
80650
80634
80652
80665
80662
80689
80659
80612
80564
80532
80443
80437
80441
80422
80429
80431
80448
80440
80461
80464
80477
80502
80494
80476
80485
80496
80495
80509
80512
80520
80524
80539
80542
80528
80538
80560
80554
80575
80555
80567
80588
80614
80580
80596
80612
80561
80472
80409
80396
80363
80345
80341
80379
80372
80367
80374
80387
80397
80392
80417
80406
80405
80373
80392
80404
80410
80414
80431
80444
80436
80456
80473
80480
80474
80513
80520
80502
80526
80531
80558
80559
80563
80544
80486
80416
80364
80338
80326
80311
80306
80318
80306
80295
80301
80331
80361
80359
80356
80368
80363
80368
80342
80368
80364
80380
80377
80370
80392
80406
80397
80426
80436
80429
80475
80458
80463
80489
80482
80508
80519
80531
80526
80547
80551
80569
80561
80492
80418
80359
80320
80288
80283
80270
80287
80281
80322
80331
80322
80340
80356
80374
80375
80382
80408
80397
80419
80422
80419
80426
80434
80445
80449
80443
80472
80473
80464
80485
80496
80492
80526
80534
80534
80567
80545
80559
80594
80607
80609
80625
80622
80583
80531
80456
80394
80396
80371
80376
80388
80396
80399
80390
80419
80414
80430
80453
80442
80439
80447
80429
80436
80450
80455
80475
80455
80462
80484
80477
80481
80493
80498
80525
80551
80536
80545
80567
80572
80579
80578
80593
80599
80602
80589
80560
80519
80442
80399
80353
80343
80316
80314
80325
80313
80303
80346
80353
80369
80385
80378
80383
80386
80397
80401
80421
80394
80438
80439
80440
80451
80450
80447
80469
80468
80492
80495
80499
80508
80513
80511
80525
80541
80530
80557
80575
80556
80541
80519
80407
80366
80336
80329
80332
80317
80311
80297
80310
80329
80357
80357
80374
80377
80338
80372
80358
80367
80358
80350
80362
80347
80373
80394
80397
80405
80380
80391
80411
80411
80429
80439
80435
80449
80438
80447
80451
80500
80490
80493
80500
80502
80510
80521
80549
80525
80529
80562
80571
80556
80511
80435
80368
80337
80297
80298
80281
80266
80260
80278
80285
80292
80312
80321
80331
80330
80325
80359
80326
80344
80330
80340
80386
80365
80367
80380
80394
80382
80397
80392
80425
80443
80445
80452
80451
80478
80485
80486
80481
80510
80529
80537
80532
80556
80554
80560
80560
80580
80564
80598
80574
80513
80442
80379
80353
80343
80368
80356
80359
80367
80361
80378
80382
80393
80410
80426
80447
80450
80415
80397
80443
80445
80446
80459
80451
80448
80465
80484
80488
80480
80497
80494
80510
80511
80526
80531
80541
80574
80544
80559
80579
80572
80598
80593
80613
80601
80620
80597
80542
80489
80433
80420
80401
80389
80385
80417
80403
80421
80423
80430
80439
80458
80466
80459
80441
80466
80462
80466
80471
80485
80513
80494
80523
80521
80518
80548
80545
80578
80597
80603
80588
80604
80605
80630
80617
80642
80670
80645
80655
80674
80639
80603
80532
80492
80442
80455
80445
80417
80432
80440
80435
80446
80441
80453
80474
80468
80489
80475
80492
80452
80499
80468
80493
80513
80509
80510
80501
80530
80546
80562
80567
80574
80563
80579
80597
80605
80610
80639
80635
80646
80640
80650
80637
80636
80661
80677
80632
80558
80496
80454
80406
80369
80354
80374
80369
80367
80364
80361
80401
80396
80421
80424
80434
80418
80433
80404
80410
80435
80423
80435
80430
80453
80443
80460
80468
80477
80466
80493
80481
80504
80514
80527
80559
80537
80550
80557
80563
80612
80582
80605
80601
80621
80619
80603
80596
80610
80553
80475
80431
80370
80371
80324
80336
80336
80336
80338
80345
80346
80370
80385
80413
80417
80395
80395
80394
80393
80400
80407
80390
80421
80422
80435
80447
80428
80428
80449
80433
80456
80438
80446
80464
80484
80502
80491
80489
80493
80494
80474
80509
80521
80523
80518
80467
80442
80366
80318
80298
80276
80289
80309
80323
80335
80331
80334
80365
80390
80402
80420
80412
80399
80404
80412
80417
80432
80418
80459
80440
80433
80449
80474
80468
80480
80515
80526
80541
80549
80539
80549
80614
80637
80644
80667
80713
80726
80729
80720
80672
80587
80521
80483
80459
80459
80455
80437
80458
80467
80447
80475
80477
80502
80510
80489
80519
80500
80520
80493
80516
80516
80519
80521
80522
80529
80545
80560
80564
80590
80590
80615
80613
80632
80636
80640
80650
80662
80654
80671
80667
80679
80722
80731
80719
80728
80722
80642
80578
80507
80478
80463
80460
80429
80448
80452
80433
80448
80467
80468
80462
80519
80511
80496
80505
80496
80502
80505
80476
80505
80505
80516
80513
80529
80543
80539
80545
80542
80551
80550
80562
80606
80603
80605
80590
80625
80618
80639
80656
80645
80661
80659
80682
80677
80645
80554
80500
80444
80431
80415
80398
80418
80420
80426
80429
80437
80447
80455
80464
80479
80491
80460
80467
80464
80455
80473
80477
80470
80502
80494
80511
80513
80522
80523
80526
80536
80572
80572
80582
80580
80578
80603
80601
80601
80608
80628
80624
80632
80564
80489
80411
80385
80377
80382
80369
80363
80350
80379
80380
80374
80393
80391
80430
80429
80425
80413
80398
80399
80425
80441
80445
80459
80448
80456
80460
80457
80477
80502
80500
80509
80508
80523
80552
80564
80561
80575
80570
80591
80611
80596
80612
80613
80618
80578
80513
80430
80385
80374
80355
80328
80346
80346
80356
80349
80368
80377
80397
80418
80435
80426
80415
80415
80410
80420
80434
80432
80422
80445
80458
80454
80444
80487
80471
80480
80498
80542
80540
80555
80556
80551
80570
80587
80584
80602
80635
80612
80636
80649
80643
80637
80677
80685
80692
80664
80618
80569
80491
80454
80411
80408
80403
80403
80384
80411
80429
80411
80439
80453
80473
80451
80478
80460
80438
80440
80467
80477
80466
80464
80456
80471
80496
80472
80491
80496
80518
80511
80541
80537
80555
80582
80576
80598
80599
80596
80623
80617
80622
80637
80631
80649
80646
80632
80654
80630
80547
80486
80441
80427
80425
80429
80422
80422
80426
80419
80454
80458
80461
80492
80474
80482
80475
80487
80498
80503
80512
80483
80539
80531
80516
80529
80543
80544
80557
80569
80563
80558
80594
80585
80613
80617
80645
80648
80637
80650
80649
80653
80661
80671
80641
80615
80548
80487
80473
80468
80441
80446
80443
80444
80462
80451
80465
80460
80489
80503
80494
80500
80495
80481
80494
80515
80527
80502
80514
80517
80524
80528
80564
80556
80582
80564
80582
80589
80634
80632
80635
80630
80638
80667
80664
80670
80668
80689
80683
80715
80721
80708
80713
80695
80622
80556
80487
80465
80430
80423
80458
80436
80455
80437
80443
80459
80498
80507
80533
80582
80569
80565
80556
80583
80576
80572
80608
80571
80597
80622
80605
80631
80635
80643
80657
80666
80661
80672
80673
80681
80684
80704
80710
80717
80711
80736
80734
80751
80754
80757
80769
80769
80758
80750
80721
80665
80554
80552
80529
80504
80519
80525
80522
80544
80550
80548
80573
80582
80588
80578
80596
80559
80563
80596
80618
80580
80599
80619
80605
80618
80616
80628
80620
80645
80658
80654
80675
80703
80688
80704
80709
80719
80694
80713
80750
80741
80725
80654
80581
80526
80506
80498
80471
80500
80516
80508
80523
80532
80543
80575
80584
80577
80561
80579
80553
80585
80571
80576
80585
80571
80599
80573
80619
80597
80600
80618
80616
80642
80635
80663
80650
80691
80698
80700
80723
80707
80673
80609
80541
80494
80455
80437
80456
80457
80451
80468
80464
80473
80469
80490
80498
80518
80493
80499
80519
80508
80520
80523
80537
80537
80528
80535
80575
80579
80601
80590
80602
80623
80634
80631
80669
80663
80649
80684
80687
80697
80683
80726
80714
80742
80729
80730
80736
80773
80775
80773
80777
80777
80738
80668
80606
80537
80523
80497
80484
80456
80473
80478
80471
80479
80495
80492
80513
80531
80514
80519
80522
80507
80523
80506
80526
80538
80516
80533
80538
80550
80552
80558
80561
80588
80591
80603
80606
80629
80646
80628
80702
80722
80719
80724
80743
80740
80748
80754
80741
80713
80639
80577
80531
80503
80500
80520
80525
80529
80518
80534
80533
80558
80567
80588
80589
80579
80594
80557
80563
80585
80590
80590
80593
80594
80615
80588
80609
80618
80639
80630
80629
80645
80658
80682
80705
80704
80698
80717
80726
80739
80734
80770
80751
80704
80643
80575
80523
80481
80485
80478
80490
80476
80482
80501
80500
80536
80544
80548
80558
80553
80542
80536
80556
80545
80541
80569
80566
80567
80580
80584
80598
80619
80622
80661
80652
80642
80648
80665
80670
80695
80704
80706
80741
80723
80742
80748
80773
80772
80775
80791
80790
80787
80797
80796
80769
80670
80618
80544
80552
80526
80525
80528
80547
80531
80540
80556
80554
80553
80586
80586
80592
80608
80589
80578
80591
80597
80601
80601
80621
80602
80618
80622
80642
80657
80635
80639
80650
80664
80682
80699
80709
80707
80706
80738
80755
80757
80783
80797
80794
80800
80786
80791
80805
80773
80699
80613
80574
80582
80554
80545
80554
80561
80547
80564
80585
80583
80586
80611
80625
80616
80605
80609
80613
80595
80615
80637
80633
80643
80653
80659
80677
80675
80689
80676
80694
80718
80696
80724
80746
80720
80765
80741
80765
80773
80780
80773
80757
80697
80638
80576
80544
80533
80507
80515
80510
80510
80523
80536
80534
80565
80559
80571
80573
80582
80574
80579
80582
80580
80579
80602
80587
80596
80602
80613
80631
80631
80645
80648
80661
80673
80672
80693
80696
80695
80698
80730
80718
80742
80737
80760
80742
80760
80754
80749
80771
80694
80622
80567
80529
80512
80511
80497
80499
80484
80496
80502
80550
80540
80547
80562
80555
80538
80566
80550
80553
80564
80565
80544
80573
80562
80569
80598
80593
80613
80598
80631
80636
80646
80653
80671
80671
80680
80706
80704
80696
80722
80754
80737
80717
80740
80743
80742
80748
80767
80745
80687
80622
80544
80503
80496
80484
80457
