80821
80813
80834
80833
80831
80838
80857
80896
80934
80949
80948
80954
50919
50905
50870
50817
50790
50787
50809
50778
50821
50824
50822
50812
50826
50815
50816
50765
50725
50694
50684
50647
50637
50647
50641
50630
50614
50614
50593
50635
50674
50807
50917
50946
81093
81101
81088
81091
81083
81076
81074
81066
81066
81067
81064
81056
81057
81041
81034
81040
81034
50945
50931
50851
50836
50826
50792
50761
50753
50744
50726
50709
50720
50689
50659
50661
50663
50702
50813
50870
50922
50966
50966
50975
50946
50963
50966
50937
50925
50878
50869
50858
50883
81041
81050
81037
81017
81023
81019
81013
81010
81014
81002
81022
81010
80997
80989
80986
80996
80982
80986
50807
50766
50747
50770
50843
50921
51029
51050
51061
51053
51047
51050
51026
51029
50982
50966
50957
50948
50952
21846
50973
50937
50938
50961
50936
50954
50936
50913
50891
50887
50888
50870
81006
81021
81002
80989
80980
80973
80946
80929
80926
80931
80962
80950
80946
80910
80913
80904
80914
80881
80876
80857
80829
80814
80808
80793
80777
80757
80745
80723
80706
80701
80681
80682
80655
80637
80625
80620
80625
80622
80609
80611
80619
80616
80607
80620
80653
80688
80710
80739
80738
80735
80736
80735
80733
80743
80734
80739
80730
80745
80741
80764
80780
80782
80796
80799
80803
80813
80813
80812
80825
80820
80843
80842
80841
80837
80850
80857
80859
80857
80872
80897
80931
80951
80990
80985
80995
80990
81000
81001
80988
80975
80981
80981
80980
80971
80982
80974
80977
80974
80954
80965
80970
80962
80957
80958
80958
80951
80949
80951
80943
80940
80920
80923
80912
80960
80988
81008
81019
81013
81009
80988
80977
80969
80935
80919
80912
80920
80900
80894
80862
80856
80842
80811
80789
80781
80759
80726
80687
80671
80640
80617
80567
80555
80556
80570
80572
80563
80562
80538
80514
80474
80459
80437
80407
80395
80376
80363
80367
80366
80359
80340
80341
80321
80324
80313
80290
80289
80284
80291
80269
80296
80323
80342
80344
80338
80329
80323
80312
80305
80275
80279
80264
80256
80256
80257
80256
80268
80268
80264
80269
80271
80260
80267
80276
80273
80277
80291
80335
80387
80408
80451
80456
80463
80483
80476
80477
80472
80470
80465
80472
80464
80477
80486
80492
80492
80500
80503
80499
80497
80495
80501
80486
80503
80497
80498
80538
80590
80603
80626
80629
80632
80637
80626
80616
80622
80618
80617
80607
80608
80610
80599
80593
80592
80596
80602
80600
80605
80587
80587
80570
80559
80566
80570
80594
80619
80652
80667
80664
80663
80642
80647
80624
80611
80588
80589
80566
80562
80563
80562
80553
80530
80507
80493
80458
80439
80442
80429
80433
80413
80433
80466
80510
80542
80544
80547
80537
80539
80527
80516
80513
80509
80499
80488
80487
80492
80490
80501
80483
80471
80453
80446
80428
80430
80416
80403
80428
80435
80479
80510
80497
80489
80484
80487
80468
80453
80449
80429
80425
80427
80421
80439
80429
80431
80437
80425
80422
80411
80415
80401
80383
80397
80408
80426
80461
80475
80478
80466
80465
80439
80453
80430
80429
80414
80405
80412
80417
80424
80424
80420
80421
80440
80446
80460
80480
80497
80508
80515
80550
80577
80610
80618
80586
80576
80553
80533
80537
80508
80484
80466
80448
80435
80435
80435
80435
80428
80442
80445
80461
80457
80458
80460
80449
80493
80533
80567
80569
80586
80596
80609
80608
80607
80597
80590
80576
80565
80557
80551
80535
80528
80519
80511
80498
80504
80501
80499
80496
80491
80484
80483
80498
80512
80546
80561
80562
80564
80565
80576
80566
80574
80558
80570
80562
80574
80572
80584
80574
80566
80572
80580
80581
80581
80576
80581
80584
80574
80586
80577
80571
80563
80555
80566
80608
80638
80648
80664
80664
80653
80650
80662
80635
80622
80613
80599
80607
80616
80594
80578
80559
80557
80533
80526
80529
80541
80548
80545
80505
80483
80466
80454
80420
80399
80388
80386
80379
80370
80373
80379
80410
80437
80497
80505
80529
80531
80534
80533
80538
80532
80535
80525
80536
80532
80547
80549
80546
80546
80546
80552
80545
80536
80538
80539
80537
80529
80533
80531
80533
80539
80529
80543
80533
80540
80536
80545
80557
80584
80631
80640
80653
80659
80657
80666
80655
80648
80642
80640
80635
80628
80623
80626
80619
80618
80627
80625
80621
80625
80622
80619
80620
80609
80603
80608
80608
80590
80590
80597
80618
80648
80655
80676
80688
80708
80708
80716
80705
80712
80700
80682
80676
80690
80685
80700
80706
80709
80716
80723
80722
80721
80720
80731
80728
80716
80720
80695
80715
80710
80744
80768
80775
80771
80764
80755
80761
80767
80763
80740
80729
80720
80700
80691
80690
80685
80680
80647
80637
80612
80625
80613
80621
80605
80612
80610
80606
80599
80631
80657
80695
80688
80690
80682
80695
80685
80677
80681
80678
80671
80678
80667
80666
80672
80665
80653
80665
80674
80671
80668
80664
80660
80663
80653
80643
80655
80692
80717
80723
80731
80726
80718
80706
80711
80716
80703
80683
80681
80672
80671
80679
80675
80682
80669
80679
80673
80685
80682
80676
80672
80663
80670
80674
80711
80737
80751
80757
80761
80783
80778
80782
80760
80757
80743
80744
80724
80718
80715
80722
80727
80730
80725
80720
80703
80688
80673
80648
80629
80625
80636
80672
80692
80718
80711
80733
80750
80770
80791
80782
80778
80767
80754
80761
80736
80724
80712
80668
80649
80640
80615
80608
80614
80601
80599
80622
80639
80664
80695
80739
80784
80820
80844
80842
80864
80859
80860
80856
80856
80846
80845
80855
80873
80858
80856
80841
80839
80803
80760
80741
80706
80694
80683
80689
80684
80713
80734
80779
80798
80819
80828
80826
80825
80845
80819
80809
80821
80817
80810
80806
80789
80798
80800
80788
80804
80786
80788
80776
80765
80780
80768
80766
80757
80778
80796
80822
80829
80838
80826
80829
80814
80815
80810
80795
80801
80798
80804
80788
80782
80781
80775
80776
80779
80774
80773
80784
80767
80768
80759
80760
80747
80768
80801
80807
80819
80807
80799
80798
80810
80798
80794
80788
80795
80788
80791
80794
80789
80796
80792
80781
80773
80762
80767
80772
80737
80753
80746
80758
80773
80797
80797
80816
80807
80811
80801
80794
80788
80772
80768
80773
80781
80787
80780
80762
80779
80765
80758
80751
80763
80759
80762
80755
80753
80762
80783
80811
80806
80823
80808
80806
80811
80810
80797
80790
80790
80800
80796
80805
80800
80802
80790
80791
80796
80786
80786
80780
80767
80775
80770
80789
80799
80815
80838
80829
80825
80827
80837
80823
80800
80812
80810
80806
80800
80807
80810
80805
80817
80811
80806
80781
80781
80796
80781
80785
80777
80786
80785
80808
80830
80834
80842
80837
80833
80823
80828
80817
80812
80815
80807
80794
80766
80773
80766
80744
80752
80742
80736
80727
80703
80697
80687
80671
80668
80659
80667
80674
80666
80674
80659
80649
80620
80615
80595
80581
80574
80559
80559
80530
80545
80523
80520
80511
80487
80462
80466
80445
80435
80429
80421
80422
80427
80429
80454
80460
80452
80445
80430
80420
80415
80414
80405
80390
80404
80411
80398
80407
80418
80416
80415
80416
80418
80429
80424
80417
80418
80412
80432
80465
80484
80494
80502
80489
80493
80483
80461
80447
80435
80437
80440
80432
80438
80435
80434
80433
80417
80432
80408
80390
80393
80390
80393
80395
80427
80444
80456
80452
80414
80394
80358
80332
80331
80318
80337
80344
80368
80407
80462
80504
80531
80549
80572
80584
80607
80619
80632
80645
80650
80659
80698
80724
80748
80733
80754
80757
80768
80763
80760
80760
80749
80757
80771
80777
80766
80761
80768
80774
80769
80750
80759
80757
80752
80747
80767
80774
80797
80800
80809
80803
80792
80780
80777
80759
80727
80696
80704
80700
80698
80686
80680
80668
80674
80676
80663
80608
80558
80510
80452
80426
80401
80394
80377
80356
80328
80311
80292
80287
80275
80276
80274
80278
80288
80306
80304
80351
80453
80533
80533
80533
80530
80522
80538
80538
80524
80534
80536
80530
80542
80513
80530
80552
80566
80578
80583
80600
80605
80611
80601
80579
80549
80525
80496
80465
80452
80424
80404
80405
80401
80384
80376
80378
80420
80443
80451
80470
80503
80537
80542
80560
80628
80686
80731
80736
80746
80763
80842
80887
80902
80911
80897
80859
80838
80806
80775
80762
80753
80751
80733
80722
80704
80694
80675
80658
80635
80601
80576
80584
80606
80624
80630
80620
80597
80599
80582
80578
80576
80583
80563
80548
80564
80575
80593
80627
80638
80663
80679
80695
80720
80735
80743
80761
80753
80744
80720
80698
80684
80677
80675
80694
80699
80713
80671
80648
80624
80602
80620
80587
80566
80547
80533
80524
80510
80516
80509
80505
80486
80479
80474
80485
80492
80475
80463
80456
80437
80407
80384
80385
80374
80396
80396
80378
80380
80432
80490
80504
80517
80501
80497
80488
80477
80467
80464
80446
80430
80420
80406
80412
80405
80410
80392
80381
80394
80388
80379
80367
80354
80363
80367
80359
80348
80363
80357
80360
80346
80346
80353
80363
80379
80386
80398
80377
80374
80355
80316
80292
80253
80192
80197
80237
80270
80294
80269
80261
80253
80258
80280
80267
80265
80241
80218
80199
80195
80213
80200
80195
80177
80186
80186
80183
80182
80179
80172
80156
80161
80147
80154
80158
80136
80143
80137
80137
80139
80134
80140
80129
80131
80178
80223
80262
80290
80310
80324
80327
80326
80330
80346
80361
80369
80369
80364
80385
80379
80387
80385
80383
80377
80372
80365
80366
80361
80351
80350
80338
80343
80332
80340
80334
80326
80323
80329
80326
80310
80317
80297
80313
80303
80337
80391
80410
80417
80453
80452
80454
80458
80456
80464
80459
80451
80442
80434
80437
80432
80431
80425
80422
80429
80428
80420
80406
80408
80404
80391
80384
80377
80385
80391
56393
80372
80383
80373
80356
80362
80371
80370
80365
80383
80407
80453
80482
80506
80518
80521
80510
80508
80504
80510
80502
80506
80486
80484
80488
80489
80482
80488
80486
80480
80481
80481
80485
80470
80465
80474
80462
80453
80462
80460
80454
80448
80441
80456
80449
80462
80432
80448
80470
80498
80537
80557
80577
80583
80585
80581
80550
80558
80550
80532
80541
80528
80531
80544
80526
80533
80532
80542
80531
80523
80528
80529
80538
80515
80525
80526
80518
80505
80512
80496
80490
80492
80487
80480
80479
80480
80472
80476
80492
80531
80560
80572
80595
80597
80612
80606
80595
80594
80596
80589
80591
80566
80579
80584
80597
80596
80578
80575
80581
80566
80572
80580
80587
80573
80562
80549
80561
80550
80533
80527
80533
80540
80534
80535
80534
80522
80519
80507
80517
80545
80576
80607
80621
80616
80636
80630
80632
80641
80633
80625
80623
80628
80609
80613
80616
80617
80610
80617
80615
80606
80598
80601
80596
80593
80585
80580
80592
80578
80574
80576
80568
80566
80563
80553
80548
80542
80548
80530
80564
80594
80626
80641
80654
80655
80661
80652
80660
80647
80658
80659
80651
80653
80643
80653
80650
80652
80647
80645
80638
80635
80639
80639
80631
80617
80630
80621
80615
80599
80607
80597
80596
80582
80593
80589
80586
80581
80594
80617
80649
80668
80689
80693
80727
80719
80729
80729
80721
80708
80707
80696
80693
80699
80698
80709
80700
80703
80697
80702
80681
80682
80696
80672
80671
80661
80672
80659
80662
80655
80666
80667
80663
80666
80663
80655
80662
80655
80651
80666
80698
80710
80721
80728
80728
80717
80704
80717
80713
80709
80697
80685
80685
80670
80681
80682
80693
80679
80690
80696
80687
80690
80688
80678
80676
80676
80690
80687
80685
80689
80683
80707
80692
80691
80686
80688
80673
80671
80659
80645
80639
80676
80693
80678
80699
80681
80696
80725
80647
79975
80083
80116
80122
80110
80095
80071
80042
80059
80039
80030
80024
80029
80022
80052
80066
80092
80132
80128
80145
80124
80108
80125
80117
80114
80132
80129
80134
80111
80048
80015
79986
79974
79968
79965
79822
79911
79933
79943
79973
79969
79947
79931
79941
79915
79908
79894
79899
79898
79921
79900
79932
79927
79939
79954
79971
79977
80005
80032
80031
80047
80016
79976
79911
79895
79861
79863
79863
79876
79852
79883
79880
79896
79920
79923
79947
79922
79952
79947
79947
79967
79975
79960
79977
79999
80041
80034
80048
80043
80075
80074
80112
80100
80113
80061
80007
79951
79923
79905
79911
79915
79924
79907
79929
79940
79961
79976
79994
80005
80015
80028
80022
80018
80025
80023
80022
80046
80039
80057
80068
80084
80098
80098
80110
80120
80124
80145
80137
80182
80206
80191
80206
80207
80241
80238
80231
80243
80273
80258
80207
80141
80117
80076
80053
80041
80039
80051
80071
80076
80078
80128
80147
80162
80150
80136
80131
80153
80173
80168
80173
80165
80172
80190
80212
80216
80252
80236
80237
80278
80289
80302
80301
80314
80331
80345
80326
80344
80368
80373
80353
80306
80232
80195
80223
80222
80212
80219
80220
80261
80261
80262
80267
80278
80282
80281
80284
80275
80287
80292
80322
80317
80314
80326
80344
80360
80381
80373
80381
80402
80392
80387
80396
80430
80439
80434
80475
80461
80468
80445
80381
80332
80271
80237
80225
80237
80256
80254
80279
80256
80290
80289
80303
80301
80302
80320
80299
80330
80330
80312
80361
80356
80359
80375
80394
80406
80383
80416
80431
80418
80435
80430
80459
80456
80482
80488
80471
80497
80511
80510
80541
80523
80492
80416
80352
80324
80297
80250
80264
80262
80270
80283
80294
80299
80323
80346
80339
80354
80345
80339
80355
80354
80353
80368
80387
80394
80410
80405
80431
80424
80444
80445
80476
80442
80464
80521
80513
80524
80547
80547
80554
80577
80562
80606
80588
80583
80619
80640
80579
80522
80444
80395
80362
80368
80348
80363
80347
80383
80385
80392
80402
80418
80423
80431
80423
80415
80419
80438
80441
80437
80461
80471
80458
80476
80494
80503
80546
80533
80537
80555
38059
80573
80599
80593
80618
80628
80649
80629
80649
80678
80671
80676
80670
80678
80658
80556
80502
80460
80439
80435
80434
80437
80444
80476
80448
80464
80481
80498
80490
80501
80498
80504
80500
80507
80532
80526
80527
80538
80548
80535
80533
80559
80600
80603
80585
80593
80617
80655
80625
80650
80634
80652
80665
80662
80689
80659
80612
80564
80532
80443
80437
80441
80422
80429
80431
80448
80440
80461
80464
80477
80502
80494
80476
80485
80496
80495
80509
80512
80520
80524
80539
80542
80528
80538
80560
80554
80575
80555
80567
80588
80614
80580
80596
80612
80561
80472
80409
80396
80363
80345
80341
80379
80372
80367
80374
80387
80397
80392
80417
80406
80405
80373
80392
80404
80410
80414
80431
80444
80436
80456
80473
80480
80474
80513
80520
80502
80526
80531
80558
80559
80563
80544
80486
80416
80364
80338
80326
80311
80306
80318
80306
80295
80301
80331
80361
80359
80356
80368
80363
80368
80342
80368
80364
80380
80377
80370
80392
80406
80397
80426
80436
80429
80475
80458
80463
80489
80482
80508
80519
80531
80526
80547
80551
80569
80561
80492
80418
80359
80320
80288
80283
80270
80287
80281
80322
80331
80322
80340
80356
80374
80375
80382
80408
80397
80419
80422
80419
80426
80434
80445
80449
80443
80472
80473
80464
80485
80496
80492
80526
80534
80534
80567
80545
80559
80594
80607
80609
80625
80622
80583
80531
80456
80394
80396
80371
80376
80388
80396
80399
80390
80419
80414
80430
80453
80442
80439
80447
80429
80436
80450
80455
80475
80455
80462
80484
80477
80481
80493
80498
80525
80551
80536
80545
80567
80572
80579
80578
80593
80599
80602
80589
80560
80519
80442
80399
80353
80343
80316
80314
80325
80313
80303
80346
80353
80369
80385
80378
80383
80386
80397
80401
80421
80394
80438
80439
80440
80451
80450
80447
80469
80468
80492
80495
80499
80508
80513
80511
80525
80541
80530
80557
80575
80556
80541
80519
80407
80366
80336
80329
80332
80317
80311
80297
80310
80329
80357
80357
80374
80377
80338
80372
80358
80367
80358
80350
80362
80347
80373
80394
80397
80405
80380
80391
80411
80411
80429
80439
80435
80449
80438
80447
80451
80500
80490
80493
80500
80502
80510
80521
80549
80525
80529
80562
80571
80556
80511
80435
80368
80337
80297
80298
80281
80266
80260
80278
80285
80292
80312
80321
80331
80330
80325
80359
80326
80344
80330
80340
80386
80365
80367
80380
80394
80382
80397
80392
80425
80443
80445
80452
80451
80478
80485
80486
80481
80510
80529
80537
80532
80556
80554
80560
80560
80580
80564
80598
80574
80513
80442
80379
80353
80343
80368
80356
80359
80367
80361
80378
80382
80393
80410
80426
80447
80450
80415
80397
80443
80445
80446
80459
80451
80448
80465
80484
80488
80480
80497
80494
80510
80511
80526
80531
80541
80574
80544
80559
80579
80572
80598
80593
80613
80601
80620
80597
80542
80489
80433
80420
80401
80389
80385
80417
80403
80421
80423
80430
80439
80458
80466
80459
80441
80466
80462
80466
80471
80485
80513
80494
80523
80521
80518
80548
80545
80578
80597
80603
80588
80604
80605
80630
80617
80642
80670
80645
80655
80674
80639
80603
80532
80492
80442
80455
80445
80417
80432
80440
80435
80446
80441
80453
80474
80468
80489
80475
80492
80452
80499
80468
80493
80513
80509
80510
80501
80530
80546
80562
80567
80574
80563
80579
80597
80605
80610
80639
80635
80646
80640
80650
80637
80636
80661
80677
80632
80558
80496
80454
80406
80369
80354
80374
80369
80367
80364
80361
80401
80396
80421
80424
80434
80418
80433
80404
80410
80435
80423
80435
80430
80453
80443
80460
80468
80477
80466
80493
80481
80504
80514
80527
80559
80537
80550
80557
80563
80612
80582
80605
80601
80621
80619
80603
80596
80610
80553
80475
80431
80370
80371
80324
80336
80336
80336
80338
80345
80346
80370
80385
80413
80417
80395
80395
80394
80393
80400
80407
80390
80421
80422
80435
80447
80428
80428
80449
80433
80456
80438
80446
80464
80484
80502
80491
80489
80493
80494
80474
80509
80521
80523
80518
80467
80442
80366
80318
80298
80276
80289
80309
80323
80335
80331
80334
80365
80390
80402
80420
80412
80399
80404
80412
80417
80432
80418
80459
80440
80433
80449
80474
80468
80480
80515
80526
80541
80549
80539
80549
80614
80637
80644
80667
80713
80726
80729
80720
80672
80587
80521
80483
80459
80459
80455
80437
80458
80467
80447
80475
80477
80502
80510
80489
80519
80500
80520
80493
80516
80516
80519
80521
80522
80529
80545
80560
80564
80590
80590
80615
80613
80632
80636
80640
80650
80662
80654
80671
80667
80679
80722
80731
80719
80728
80722
80642
80578
80507
80478
80463
80460
80429
80448
80452
80433
80448
80467
80468
80462
80519
80511
80496
80505
80496
80502
80505
80476
80505
80505
80516
80513
80529
80543
80539
80545
80542
80551
80550
80562
80606
80603
80605
80590
80625
80618
80639
80656
80645
80661
80659
80682
80677
80645
80554
80500
80444
80431
80415
80398
80418
80420
80426
80429
80437
80447
80455
80464
80479
80491
80460
80467
80464
80455
80473
80477
80470
80502
80494
80511
80513
80522
80523
80526
80536
80572
80572
80582
80580
80578
80603
80601
80601
80608
80628
80624
80632
80564
80489
80411
80385
80377
80382
80369
80363
80350
80379
80380
80374
80393
80391
80430
80429
80425
80413
80398
80399
80425
80441
80445
80459
80448
80456
80460
80457
80477
80502
80500
80509
80508
80523
80552
80564
80561
80575
80570
80591
80611
80596
80612
80613
80618
80578
80513
80430
80385
80374
80355
80328
80346
80346
80356
80349
80368
80377
80397
80418
80435
80426
80415
80415
80410
80420
80434
80432
80422
80445
80458
80454
80444
80487
80471
80480
80498
80542
80540
80555
80556
80551
80570
80587
80584
80602
80635
80612
80636
80649
80643
80637
80677
80685
80692
80664
80618
80569
80491
80454
80411
80408
80403
80403
80384
80411
80429
80411
80439
80453
80473
80451
80478
80460
80438
80440
80467
80477
80466
80464
80456
80471
80496
80472
80491
80496
80518
80511
80541
80537
80555
80582
80576
80598
80599
80596
80623
80617
80622
80637
80631
80649
80646
80632
80654
80630
80547
80486
80441
80427
80425
80429
80422
80422
80426
80419
80454
80458
80461
80492
80474
80482
80475
80487
80498
80503
80512
80483
80539
80531
80516
80529
80543
80544
80557
80569
80563
80558
80594
80585
80613
80617
80645
80648
80637
80650
80649
80653
80661
80671
80641
80615
80548
80487
80473
80468
80441
80446
80443
80444
80462
80451
80465
80460
80489
80503
80494
80500
80495
80481
80494
80515
80527
80502
80514
80517
80524
80528
80564
80556
80582
80564
80582
80589
80634
80632
80635
80630
80638
80667
80664
80670
80668
80689
80683
80715
80721
80708
80713
80695
80622
80556
80487
80465
80430
80423
80458
80436
80455
80437
80443
80459
80498
80507
80533
80582
80569
80565
80556
80583
80576
80572
80608
80571
80597
80622
80605
80631
80635
80643
80657
80666
80661
80672
80673
80681
80684
80704
80710
80717
80711
80736
80734
80751
80754
80757
80769
80769
80758
80750
80721
80665
80554
80552
80529
80504
80519
80525
80522
80544
80550
80548
80573
80582
80588
80578
80596
80559
80563
80596
80618
80580
80599
80619
80605
80618
80616
80628
80620
80645
80658
80654
80675
80703
80688
80704
80709
80719
80694
80713
80750
80741
80725
80654
80581
80526
80506
80498
80471
80500
80516
80508
80523
80532
80543
80575
80584
80577
80561
80579
80553
80585
80571
80576
80585
80571
80599
80573
80619
80597
80600
80618
80616
80642
80635
80663
80650
80691
80698
80700
80723
80707
80673
80609
80541
80494
80455
80437
80456
80457
80451
80468
80464
80473
80469
80490
80498
80518
80493
80499
80519
80508
80520
80523
80537
80537
80528
80535
80575
80579
80601
80590
80602
80623
80634
80631
80669
80663
80649
80684
80687
80697
80683
80726
80714
80742
80729
80730
80736
80773
80775
80773
80777
80777
80738
80668
80606
80537
80523
80497
80484
80456
80473
80478
80471
80479
80495
80492
80513
80531
80514
80519
80522
80507
80523
80506
80526
80538
80516
80533
80538
80550
80552
80558
80561
80588
80591
80603
80606
80629
80646
80628
80702
80722
80719
80724
80743
80740
80748
80754
80741
80713
80639
80577
80531
80503
80500
80520
80525
80529
80518
80534
80533
80558
80567
80588
80589
80579
80594
80557
80563
80585
80590
80590
80593
80594
80615
80588
80609
80618
80639
80630
80629
80645
80658
80682
80705
80704
80698
80717
80726
80739
80734
80770
80751
80704
80643
80575
80523
80481
80485
80478
80490
80476
80482
80501
80500
80536
80544
80548
80558
80553
80542
80536
80556
80545
80541
80569
80566
80567
80580
80584
80598
80619
80622
80661
80652
80642
80648
80665
80670
80695
80704
80706
80741
80723
80742
80748
80773
80772
80775
80791
80790
80787
80797
80796
80769
80670
80618
80544
80552
80526
80525
80528
80547
80531
80540
80556
80554
80553
80586
80586
80592
80608
80589
80578
80591
80597
80601
80601
80621
80602
80618
80622
80642
80657
80635
80639
80650
80664
80682
80699
80709
80707
80706
80738
80755
80757
80783
80797
80794
80800
80786
80791
80805
80773
80699
80613
80574
80582
80554
80545
80554
80561
80547
80564
80585
80583
80586
80611
80625
80616
80605
80609
80613
80595
80615
80637
80633
80643
80653
80659
80677
80675
80689
80676
80694
80718
80696
80724
80746
80720
80765
80741
80765
80773
80780
80773
80757
80697
80638
80576
80544
80533
80507
80515
80510
80510
80523
80536
80534
80565
80559
80571
80573
80582
80574
80579
80582
80580
80579
80602
80587
80596
80602
80613
80631
80631
80645
80648
80661
80673
80672
80693
80696
80695
80698
80730
80718
80742
80737
80760
80742
80760
80754
80749
80771
80694
80622
80567
80529
80512
80511
80497
80499
80484
80496
80502
80550
80540
80547
80562
80555
80538
80566
80550
80553
80564
80565
80544
80573
80562
80569
80598
80593
80613
80598
80631
80636
80646
80653
80671
80671
80680
80706
80704
80696
80722
80754
80737
80717
80740
80743
80742
80748
80767
80745
80687
80622
80544
80503
80496
80484
80457
80481
80508
80548
80520
80527
80546
80567
80572
80578
80550
80567
80567
80567
80571
80593
80598
80603
80592
80617
80615
80633
80642
80649
80649
80664
80673
80697
80709
80706
80711
80703
80710
80720
80740
80732
80765
80761
80738
80649
80612
80563
80549
80506
80513
80525
80510
80524
80520
80555
80556
80600
80607
80594
80583
80627
80609
80625
80632
80654
80631
80644
80645
80663
80649
80714
80680
80711
80722
80725
80727
80742
80745
80751
80791
80781
80798
80814
80801
80812
80828
80816
80812
80829
80841
80808
80748
80678
80608
80618
80571
80567
80569
80582
80582
80592
80586
80587
80620
80635
80651
80664
80639
80619
80641
80638
80635
80641
80642
80665
80667
80668
80685
80678
80694
80709
80706
80724
80725
80706
80726
80726
80768
80775
80776
80788
80798
80786
80792
80786
80822
80813
80828
80800
80753
80673
80627
80573
80568
80542
80554
80542
80574
80570
80574
80591
80591
80616
80631
80613
80624
80605
80607
80598
80605
80631
80632
80625
80631
80649
80665
80657
80669
80672
80679
80684
80687
80695
80696
80707
80730
80732
80753
80737
80755
80764
80722
80670
80608
80564
80534
80516
80497
80518
80504
80514
80527
80533
80541
80556
80555
80581
80574
80575
80569
80577
80562
80569
80589
80599
80601
80612
80611
80618
80623
80646
80635
80657
80658
80682
80683
80682
80692
80723
80710
80726
80731
80724
80704
80649
80556
80515
80492
80467
80482
80464
80483
80476
80488
80490
80503
80528
80530
80550
80544
80546
80540
80563
80576
80572
80569
80574
80583
80597
80606
80603
80628
80620
80652
80648
80656
80685
80685
80697
80701
80712
80704
80729
80738
80746
80740
80747
80755
80775
80789
80787
80800
80782
80808
80803
80758
80722
80652
80578
80563
80535
80543
80544
80541
80553
80566
80581
80547
80597
80600
80610
80646
80632
80601
80619
80600
80607
80619
80614
80610
80635
80628
80633
80657
80648
80647
80668
80688
80683
80684
80693
80701
80720
80709
80739
80739
80734
80754
80760
80765
80783
80783
80798
80803
80775
80783
80716
80626
80591
80549
80547
80546
80554
80554
80584
80594
80596
80614
80634
80634
80630
80654
80635
80619
80633
80624
80642
80648
80656
80640
80647
80669
80712
80689
80687
80699
80720
80737
80726
80760
80759
80778
80769
80778
80785
80807
80810
80811
80823
80824
80762
80714
80655
80604
80588
80562
80560
80559
80572
80551
80597
80559
80608
80604
80642
80626
80643
80634
80636
80643
80645
80641
80651
80661
80652
80663
80667
80686
80679
80685
80695
80700
80702
80711
80751
80754
80748
80761
80783
80764
80783
80778
80791
80801
80815
80805
80809
80820
80795
80732
80665
80592
80562
80536
80515
80500
80492
80480
80474
80499
80466
80487
80497
80498
80518
80474
80454
80452
80416
80397
80388
80408
80395
80404
80411
80448
80438
80444
80457
80457
80460
80477
80453
80472
80460
80461
80487
80487
80509
80522
80524
80552
80541
80548
80537
80478
80414
80340
80302
80273
80261
80229
80170
80136
80116
80055
80018
79997
79976
79945
79881
79858
79798
79741
79682
79678
79603
79591
79568
79590
79614
79714
79773
79827
79900
79938
80003
80042
80067
80100
80149
80165
80227
80281
80294
80279
80274
80258
80241
80261
80272
80265
80280
80315
80304
80312
80346
80360
80360
80346
80370
80342
80386
80353
80335
80330
80335
80328
80329
80293
80300
80325
80313
80320
80312
80322
80337
80345
80350
80292
80231
80202
80174
80180
80173
80158
80123
80124
80130
80139
80129
80145
80156
80165
80149
80109
80122
80132
80124
80127
80106
80095
80159
80185
80246
80265
80319
80348
80375
80382
80351
80314
80300
80310
80293
80317
80340
80312
80340
80311
80307
80288
80279
80293
80253
80231
80206
80118
80061
80063
80065
80077
80134
80158
80192
80228
80277
80312
80323
80304
80269
80207
80164
80136
80064
80005
79976
79980
79977
79967
79958
79962
79968
79967
79971
79980
79970
79993
80001
79977
80034
80018
80019
80051
80055
80110
80175
80202
80246
80258
80230
80266
80265
80276
80333
80368
80409
80426
80473
80515
80550
80588
80608
80600
80610
80584
80558
80558
80566
80584
80597
80659
80698
80642
80090
80056
79993
79923
79886
79852
79786
79777
79749
79666
79628
79518
79439
79373
79366
79313
79246
79256
79311
79396
79459
79507
79593
79649
79701
79758
79795
79767
79728
79721
79694
79653
79606
79563
79522
79529
79513
79519
79527
79566
79594
79669
79727
79762
79802
79861
79820
79781
79760
79743
79756
79749
79737
79715
79679
79684
79657
79679
79683
79710
79736
79768
79762
79736
79726
79665
79652
79616
79633
79643
79648
79639
79622
79601
79568
79541
79508
79522
79539
79584
79636
79666
79717
79752
79792
79767
79687
79602
79538
79481
79461
79427
79377
79354
79338
79343
79352
79395
79437
79472
79510
79561
79615
79637
79692
79710
79687
79658
79639
79665
79661
79664
79654
79627
79575
79545
79552
79561
79587
79642
79665
79721
79721
79733
79711
79712
79740
79712
79729
79700
79730
79725
79247
78986
78746
78668
78682
78876
78999
79020
78934
78510
78149
78154
78196
78334
78277
78252
78250
78241
78273
78337
78413
78523
78912
78876
78756
78322
78223
78421
78505
78545
78531
78513
78345
78152
78107
78260
78239
78197
78203
78139
78356
78665
78536
78346
78238
78254
78276
78327
78305
78240
78167
78127
78093
78074
78074
78025
78043
78015
77961
77910
77883
77907
77909
77916
77876
77804
77756
77743
77701
77655
77708
77788
77837
77796
77810
77814
77850
77858
77859
77840
77770
77703
77603
77450
77327
77247
77197
77164
77111
77139
77200
77251
77252
77237
77250
77287
77339
77390
77428
77480
77528
77590
77549
77474
77443
77403
77409
77334
77165
77023
76927
76922
76931
76981
77006
77130
77182
77251
77343
77416
77503
77527
77545
77540
77508
77511
77540
77556
77574
77622
77754
77883
77944
78018
78099
78132
78180
78192
78236
78264
78237
78236
78252
78300
78180
78326
78513
78664
78759
78778
78765
78754
78768
78764
78770
78732
78706
78692
78675
78582
78447
78333
78338
78316
79723
75298
75804
74562
75407
75628
76378
76805
76948
77185
77250
77391
77362
76995
76486
76051
75591
75138
74899
74741
74605
74617
74633
74402
74370
74422
74870
75577
75717
75776
75775
75717
75668
75604
75572
75511
75463
75497
75623
75655
75700
75676
75639
75607
75561
75487
75442
75404
75401
75403
75458
75513
75563
75577
75588
75627
75653
75707
75739
75802
75859
75931
75997
75951
75821
75621
75456
75353
75272
75252
75261
75257
75285
75317
75340
75356
75321
75281
75173
75038
74920
74822
74751
74701
74712
74707
74734
74800
74811
74830
74841
74858
74872
74837
74799
74755
74684
74666
74686
74725
74785
74813
74866
74911
74946
74960
75001
75061
75111
75164
75201
75252
75118
74883
74741
74605
74581
74577
74588
74633
74665
74684
74736
74789
74823
74882
74947
74977
75023
74976
74904
74818
74733
74651
74494
74334
74286
74242
74246
74256
74271
74317
74323
74304
74285
74252
74169
74022
73883
73790
73708
73626
73555
73534
73448
73390
73337
73324
73267
73120
72915
72683
72454
72294
72170
72071
72041
71995
71942
71916
71888
71910
71973
72107
72209
72277
72364
72432
72407
72272
72107
72038
71978
71987
72056
72131
72259
72368
72479
72610
72742
72887
73011
73062
73019
73013
73009
73046
73075
73191
73258
73301
73307
73346
73372
73389
73417
73431
73451
73470
73488
73526
73591
73652
73716
73777
73853
73894
73938
73963
74077
74177
74300
74417
74487
74465
74399
74300
74240
74232
74241
74258
74087
73994
73856
73908
73914
74048
74345
74925
75596
76093
76683
76819
77965
75666
77075
77274
77448
77026
76048
76043
76874
77299
77489
77705
77814
77868
77900
77964
77960
77992
77953
77908
77969
77944
77865
77833
77785
77730
77665
77541
77343
76966
76433
76154
76109
76111
76163
76184
76201
76262
76283
76311
76335
76377
76424
76573
76729
76884
76961
76934
76878
76825
76790
76805
76842
76829
76849
76930
76982
76989
77049
77125
77233
77286
77269
77269
77278
77317
77326
77303
77260
77129
76993
76948
76913
76930
76971
76989
77002
77028
77039
77043
77067
77089
77050
77058
76998
76944
76868
76848
76826
76817
76802
76830
76872
76791
76663
76596
76559
76582
76577
76583
76602
76642
76610
76624
76625
76608
76661
76668
76686
76757
76769
76747
76642
76552
76392
76324
76254
76202
76177
76182
76273
76377
76446
76555
76669
76699
76672
76657
76635
76636
76597
76553
76526
76492
76461
76390
76313
76306
76338
76403
76440
76483
76488
76474
76467
76493
76566
76570
76516
76446
76417
76309
76268
76255
76295
76337
76402
76545
76503
76324
76211
76144
76138
76163
76209
76188
76178
76192
76168
76184
76176
76192
76230
76284
76365
76446
76457
76402
76277
76113
76006
75952
75938
75932
75939
75905
75962
76000
76054
76104
76171
76239
76272
76242
76165
76123
76113
76160
76162
76170
76072
75970
75915
75925
75938
75990
76034
76099
76191
76062
75870
75684
75717
75885
75922
75664
75625
75536
75252
75088
75094
75190
75165
75015
74708
74905
75203
74769
74743
74711
74725
74673
74700
74743
74662
74578
74584
74511
74490
74493
74467
74491
74449
74350
74217
74051
74061
74614
74966
75020
75094
75082
74963
74684
74309
73822
73074
72399
72048
72168
72428
72740
72774
73052
73075
73026
72940
72841
72750
72763
72796
72846
72878
73005
73122
73276
73415
73476
73461
73271
73026
73189
73220
73184
73187
73165
73190
73197
73145
72924
72756
72800
72889
72967
72967
72869
72755
72705
72704
72749
72841
72961
73038
73106
73157
73189
74777
76770
76787
75479
75601
76932
76978
75570
78369
79174
79260
75498
74824
75350
80553
79785
79216
79483
79371
79304
79146
78874
78654
78597
78447
78421
78375
78126
77750
77403
77248
77153
77093
77045
77152
77219
77321
77277
77421
77380
77452
77582
77725
77827
77986
78127
78192
78359
78524
78557
78571
78567
78543
78553
78540
78555
78581
78598
78645
78665
78694
78731
78767
78823
78870
78867
78874
78884
78826
78795
78767
78759
78738
78771
78797
78815
78878
78959
78973
78966
78980
79018
78991
78959
78926
78977
79034
79055
78991
78910
78880
78723
78565
78729
78832
78879
78832
78792
78907
78762
78741
78679
78540
78517
78531
78556
78610
52201
78641
78586
78528
78530
78551
78453
78398
78397
78449
78527
78620
78732
78823
78831
78834
78894
78978
79034
79084
79120
79171
79196
79161
79182
79170
79156
79074
79035
78991
79007
79010
79047
79126
79180
79239
79315
79361
79431
79464
79455
79433
79427
79442
79421
79403
79382
79392
79366
79371
79357
79348
79353
79374
79387
79361
79374
79391
79434
79442
79446
79430
79415
79395
79398
79404
79432
79464
79496
79562
79602
79575
79485
79417
79410
79414
79391
79396
79384
79373
79337
79380
79407
79426
79479
79543
79601
79667
79684
79648
79589
79516
79448
79368
79331
79322
79315
79334
79352
79401
79481
79524
79583
79592
79622
79577
79539
79524
79492
79485
79459
79370
79345
79301
79303
79337
79354
79393
79432
79495
79486
79475
79470
79470
79451
79463
79459
79462
79409
79417
79453
79481
79518
79559
79581
79572
79515
79427
79429
79413
79450
79486
79480
79487
79483
79479
79460
79474
79540
79603
79660
79697
79765
79772
79705
79611
79546
79517
79468
79450
79460
79425
79398
79447
79500
79582
79675
79755
79813
79834
79789
79778
79742
79745
79723
79584
79519
79463
79441
79469
79483
79516
79513
79532
79546
79563
79565
79499
79472
79425
79414
79436
79453
79421
79418
79505
79509
79510
79485
79481
79424
79431
79413
79425
79485
79510
79550
79562
79526
79534
79562
79620
79635
79689
79721
79758
79788
79714
79620
79558
79547
79567
79565
79623
79648
79643
79686
79708
79735
79795
79823
79908
79972
79995
79960
79956
79902
79833
79765
79693
79639
79647
79677
79699
79732
79778
79816
79865
79882
79886
79824
79798
79758
79736
79728
79759
79751
79774
79746
79757
79700
79709
79679
79654
79681
79645
79623
79603
79615
79629
79665
79662
79671
79682
79693
79693
79700
79733
79768
79785
79838
79811
79748
79691
79654
79642
79650
79671
79714
79734
79773
79792
79774
79775
79766
79766
79764
79764
79767
79790
79802
79770
79665
79608
79570
79543
79530
79560
79547
79527
79544
79552
79485
79467
79370
79300
79231
79201
79190
79360
79612
79960
80502
80656
80719
80758
79752
79402
78829
79014
78936
79075
79277
79448
79604
79622
79579
79541
79497
79569
79585
79610
79609
79599
79600
79618
79600
79535
79517
79491
79495
79439
79323
79181
79104
79058
79226
79370
79445
79516
79567
79561
79505
79446
79444
79413
79417
79449
79439
79406
79416
79383
79360
79308
79286
79243
79211
79218
79221
79250
79254
79251
79228
79180
79148
79143
79154
79160
79173
79195
79214
79254
79270
79280
79284
79290
79283
79307
79283
79295
79263
79238
79139
79054
79016
78990
78967
78885
78822
78929
79045
79162
79258
79317
79333
79375
79399
79465
79516
79540
79583
79579
79516
79448
79414
79393
79371
79382
79394
79431
79432
79477
79497
79498
79507
79549
79560
79579
79581
79629
79584
79637
79610
79517
79445
79437
79443
79462
79488
79536
79555
79601
79642
79671
79684
79681
79678
79670
79689
79693
79733
79721
79741
79660
79569
79521
79529
79562
79560
79596
79591
79610
79642
79679
79715
79725
79771
79780
79808
79807
79836
79885
79871
79855
79764
79689
79680
79682
79694
79717
79749
79799
79828
79834
79849
79864
79879
79905
79900
79889
79897
79911
79928
79949
79917
79840
79827
79839
79843
79864
79878
79880
79891
79909
79920
79920
79947
79930
79942
79957
79962
79979
80001
79991
80012
79982
79891
79841
79800
79790
79795
79811
79841
79860
79949
79999
80044
80081
80087
80100
80077
80054
80046
79984
79975
79941
79752
79688
79654
79560
79439
79382
79326
79352
79355
79351
79393
79456
79571
79611
79660
79691
79733
79725
79747
79763
79776
79813
79813
79884
79930
79949
79990
79975
79936
79920
79915
79928
79974
80003
80049
80068
80109
80164
80205
80246
80301
80337
80347
80393
80444
80473
80507
80503
80527
80556
80573
80588
80568
80494
80458
80459
80471
80488
80497
80532
80550
80590
80596
80596
80602
80591
80613
80620
80628
80633
80617
80634
80622
80641
80618
80647
80627
80586
80585
80587
80599
80643
80629
80654
80641
80661
80661
80645
80657
80667
80654
80645
80666
80665
80666
80668
80665
80669
80674
80664
80649
80645
80655
80658
80640
80657
80654
80639
80647
80663
80659
80655
80651
80652
80653
80661
80652
80665
80653
80645
80656
80646
80673
80253
80202
80221
80192
80157
80196
80299
80401
80426
80495
80526
80530
80545
80588
80652
80654
80659
80661
80662
80654
80650
80655
80655
80644
80587
80557
80503
80504
80517
80528
80520
80536
80552
80559
80575
80596
80581
80600
80616
80605
80632
80624
80617
80638
80652
80634
80655
80651
80632
80586
80578
80578
80599
80619
80638
80648
80657
80665
80668
80652
80639
80655
80669
80656
80681
80658
80669
80655
80666
80678
80658
80665
80664
80676
80681
80688
80675
80655
80675
80676
80680
80666
80670
80666
80673
80674
80684
80681
80664
80676
80669
80681
80666
80679
80665
80671
80673
80685
80666
80673
80677
80649
80654
80626
80616
80608
80603
80610
80632
80650
80649
80650
80672
80667
80677
80665
80661
80644
80643
80655
80655
80669
80671
80674
80637
80663
80675
80678
80661
80618
80574
80579
80584
80574
80587
80610
80626
80632
80648
80644
80649
80645
80644
80657
80658
80652
80662
80658
80643
80648
80652
80651
80666
80659
80660
80656
80609
80561
80533
80530
80500
80512
80563
80576
80605
80601
80648
80641
80646
80642
80636
80633
80639
80651
80644
80647
80644
80665
80654
80643
80662
80652
80664
80580
80523
80484
80476
80503
80511
80543
80564
80574
80596
80598
80613
80611
80614
80595
80624
80633
80631
80640
80637
80633
80632
80649
80645
80644
80618
80525
80481
80434
80443
80413
80420
80439
80458
80490
80510
80508
80535
80522
80538
80529
80524
80542
80538
80544
80541
80564
80558
80566
80580
80592
80520
80455
80372
80370
80333
80324
80372
80350
80378
80397
80440
80453
80453
80460
80476
80480
80473
80475
80506
80502
80516
80500
80531
80549
80537
80550
80536
80516
80394
80333
80296
80282
80285
80267
80283
80311
80330
80350
80371
80401
80397
80434
80414
80417
80433
80443
80426
80443
80441
80454
80485
80477
80486
80487
80510
80502
80448
80340
80289
80247
80243
80248
80241
80283
80289
80304
80325
80358
80399
80384
80381
80384
80395
80414
80405
80407
80422
80438
80454
80474
80493
80476
80489
80492
80534
80530
80489
80385
80315
80273
80268
80256
80249
80280
80299
80324
80346
80364
80374
80378
80402
80383
80404
80377
80384
80411
80416
80411
80427
80440
80424
80442
80457
80492
80491
80435
80350
80267
80215
80194
80194
80205
80224
80251
80272
80306
80318
80346
80345
80341
80333
80358
80355
80374
80378
80379
80385
80381
80395
80431
80421
80438
80457
80431
80335
80239
80183
80147
80130
80152
80177
80193
80201
80223
80247
80264
80280
80278
80272
80295
80284
80304
80322
80308
80334
80349
80381
80387
80377
80390
80424
80354
80264
80179
80131
80107
80131
80120
80133
80161
80197
80222
80245
80259
80276
80263
80262
80272
80274
80289
80282
80292
80299
80339
80343
80348
80360
80394
80378
80366
80264
80187
80157
80098
80090
80093
80103
80117
80146
80180
80205
80220
80244
80243
80245
80258
80233
80269
80258
80297
80281
80316
80316
80337
80354
80354
80382
80382
80400
80348
80248
80174
80139
80121
80137
80168
80192
80207
80227
80236
80255
80296
80315
80320
80311
80343
80339
80325
80354
80374
80396
80393
80406
80410
80445
80414
80430
80475
80455
80398
80310
80227
80192
80194
80214
80213
80236
80253
80285
80324
80322
80351
80344
80357
80342
80351
80382
80376
80385
80384
80400
80416
80416
80445
80437
80450
80472
80461
80432
80358
80282
80228
80195
80195
80215
80222
80245
80287
80309
80318
80348
80335
80354
80353
80352
80353
80366
80382
80394
80395
80401
80430
80451
80425
80455
80440
80449
80388
80290
80220
80184
80175
80163
80171
80197
80196
80239
80248
80273
80287
80266
80276
80280
80283
80278
80282
80300
80300
80312
80326
80326
80342
80351
80340
80338
80245
80153
80082
80064
80055
80055
80068
80085
80115
80146
80168
80185
80207
80210
80192
80195
80236
80212
80232
80238
80255
80275
80267
80282
80272
80308
80296
80345
80334
80268
80175
80087
80046
80028
80051
80049
80068
80091
80128
80155
80153
80194
80211
80217
80220
80212
80214
80215
80225
80263
80261
80283
80280
80309
80323
80330
80362
80365
80374
80413
80389
80336
80232
80169
80140
80151
80154
80156
80181
80213
80236
80257
80265
80301
80314
80321
80327
80328
80354
80345
80363
80379
80407
80440
80437
80466
80469
80482
80508
80502
80531
80533
80560
80557
80525
80454
80397
80347
80340
80328
80347
80361
80383
80398
80416
80454
80467
80471
80463
80478
80479
80485
80492
80525
80520
80514
80515
80543
80550
80568
80570
80586
80588
80600
80597
80604
80583
80539
80479
80394
80358
80350
80372
80389
80389
80407
80435
80449
80478
80480
80507
80489
80487
80510
80494
80528
80511
80515
80517
80522
80534
80526
80541
80567
80581
80584
80564
80580
80497
80418
80349
80328
80323
80311
80319
80342
80374
80369
80409
80412
80433
80437
80410
80428
80417
80435
80438
80436
80462
80453
80459
80481
80501
80494
80517
80499
80522
80492
80421
80347
80268
80228
80221
80231
80223
80234
80257
80245
80283
80302
80304
80317
80324
80315
80327
80351
80327
80357
80368
80378
80386
80384
80399
80402
80414
80424
80428
80452
80459
80405
80333
80241
80207
80175
80165
80175
80197
80209
80251
80266
80290
80306
80328
80327
80325
80331
80338
80335
80338
80365
80353
80393
80394
80420
80428
80451
80453
80455
80476
80462
80469
80483
80473
80460
80360
80286
80234
80209
80200
80211
80236
80252
80285
80287
80325
80338
80365
80367
80366
80393
80382
80391
80415
80402
80414
80449
80461
80466
80505
80488
80506
80521
80528
80551
80540
80558
80572
80599
80586
80571
80505
80462
80395
80398
80381
80406
80401
80430
80448
80470
80471
80494
80526
80540
80528
80526
80546
80537
80558
80550
80569
80573
80579
80568
80586
80590
80581
80591
80576
80605
80599
80594
80603
80592
80530
80455
80418
80412
80431
80418
80422
80433
80474
80476
80498
80525
80532
80534
80530
80537
80519
80539
80553
80548
80553
80572
80561
80577
80577
80581
80579
80595
80576
80581
80579
80538
80467
80394
80369
80346
80334
80365
80361
80356
80374
80400
80420
80428
80430
80449
80424
80436
80448
80433
80449
80451
80449
80463
80474
80477
80485
80491
80499
80523
80510
80466
80394
80319
80276
80245
80252
80252
80243
80284
80264
80278
80300
80323
80342
80330
80344
80313
80343
80327
80340
80343
80358
80343
80359
80382
80383
80389
80385
80406
80396
80425
80439
80420
80334
80238
80166
80165
80148
80123
80158
80155
80168
80199
80215
80237
80245
80252
80230
80249
80238
80247
80254
80261
80272
80301
80279
80293
80308
80324
80347
80354
80342
80375
80376
80392
80403
80425
80432
80434
80460
80483
80507
80477
80406
80308
80267
80244
80217
80252
80237
80269
80258
80312
80320
80362
80370
80382
80399
80385
80394
80387
80400
80409
80416
80423
80430
80433
80445
80456
80480
80485
80498
80479
80508
80500
80511
80505
80533
80492
80410
80334
80291
80278
80287
80265
80300
80302
80318
80347
80371
80396
80395
80397
80400
80403
80400
80429
80398
80410
80435
80425
80435
80457
80450
80463
80490
80477
80475
80484
80505
80497
80467
80381
80331
80254
80237
80217
80241
80232
80252
80242
80268
80286
80313
80307
80314
80312
80305
80315
80294
80303
80319
80330
80319
80343
80346
80359
80346
80347
80336
80381
80360
80374
80356
80304
80222
80150
80103
80111
80096
80122
80119
80140
80168
80181
80198
80214
80237
80204
80220
80208
80231
80225
80251
80233
80245
80257
80276
80282
80312
80311
80316
80333
80330
80335
80319
80346
80338
80354
80373
80373
80387
80376
80276
80209
80111
80103
80082
80096
80078
80113
80110
80144
80171
80205
80194
80195
80203
80213
80179
80206
80214
80237
80240
80259
80261
80277
80276
80299
80302
80284
80302
80329
80344
80364
80372
80404
80430
80429
80448
80459
80507
80478
80416
80339
80261
80240
80232
80246
80245
80254
80266
80300
80300
80325
80365
80351
80334
80355
80333
80342
80324
80336
80351
80350
80350
80360
80390
80390
80415
80395
80411
80404
80411
80406
80417
80443
80454
80462
80408
80349
80267
80209
80217
80212
80201
80202
80229
80259
80250
80266
80291
80289
80302
80306
80281
80282
80302
80299
80304
80317
80321
80320
80336
80345
80325
80356
80355
80362
80363
80379
80376
80385
80389
80306
80236
80162
80138
80136
80151
80146
80134
80142
80154
80170
80200
80213
80227
80200
80215
80226
80211
80232
80220
80238
80256
80253
80268
80260
80290
80280
80291
80297
80292
80331
80315
80322
80324
80232
80151
80095
80069
80046
80059
80049
80071
80079
80069
80091
80127
80141
80160
80139
80131
80136
80122
80162
80168
80175
80193
80199
80206
80187
80200
80212
80211
80250
80250
80260
80271
80289
80306
80285
80304
80332
80348
80358
80313
80225
80129
80098
80081
80075
80075
80098
80093
80119
80136
80168
80206
80215
80235
80263
80274
80275
80270
80294
80319
80320
80322
80345
80337
80343
80366
80379
80395
80367
80383
80381
80383
80389
80402
80414
80424
80428
80423
80443
80393
80340
80232
80200
80154
80173
80141
80201
80200
80204
80221
80240
80238
80249
80257
80249
80222
80241
80256
80243
80262
80275
80283
80278
80291
80303
80320
80310
80306
80315
80334
80328
80304
80341
80327
80304
80199
80147
80078
80055
80063
80064
80058
80081
80091
80098
80109
80113
80125
80141
80135
80123
80129
80133
80130
80157
80154
80153
80176
80185
80203
80211
80203
80196
80219
80219
80254
80257
80201
80114
80061
80023
80005
79973
79979
79991
79980
80003
80023
80041
80056
80064
80070
80065
80064
80052
80053
80071
80085
80081
80082
80077
80093
80096
80116
80118
80125
80126
80136
80164
80157
80171
80177
80180
80215
80206
80118
80044
79967
79948
79930
79903
79926
79929
79948
79944
79974
79994
79998
80037
80032
80005
80037
80048
80045
80043
80037
80072
80092
80074
80099
80117
80120
80125
80130
80161
80164
80181
80201
80227
80261
80232
80253
80271
80277
80302
80291
80252
80169
80097
80027
79982
79988
80011
79989
80009
80017
80040
80055
80077
80096
80096
80096
80103
80091
80101
80098
80105
80112
80132
80129
80145
80172
80171
80156
80172
80192
80206
80213
80221
80241
80235
80256
80263
80265
80249
80168
80073
80042
80017
80010
80009
80005
80018
80024
80045
80057
80083
80084
80103
80122
80101
80095
80119
80119
80117
80155
80138
80156
80150
80158
80159
80155
80173
80188
80225
80215
80225
80245
80209
80157
80077
80015
79963
79950
79949
79966
79974
79995
79978
80003
80040
80029
80059
80041
80047
80051
80053
80044
80040
80041
80070
80090
80087
80086
80106
80108
80116
80118
80122
80135
80163
80154
80148
80163
80156
80100
80030
79960
79919
79908
79874
79912
79905
79913
79904
79925
79937
79951
79964
79972
79977
80000
79981
79980
79983
80007
80020
80006
80029
80026
80044
80053
80045
80062
80075
80094
80108
80104
80086
80125
80138
80149
80169
80165
80186
80168
80207
80231
80247
80219
80165
80076
80006
79984
79965
79966
79975
79995
79997
80015
80031
80042
80042
80072
80065
80070
80076
80068
80071
80092
80100
80078
80090
80107
80125
80129
80128
80124
80137
80159
80174
80180
80172
80192
80183
80218
80215
80229
80218
80239
80236
80224
80139
80044
80013
79962
79964
79972
79966
80001
80013
80010
80018
80029
80064
80060
80064
80053
80064
80059
80045
80068
80077
80100
80086
80101
80106
80109
80109
80133
80117
80117
80150
80153
80148
80169
80174
80191
80203
80159
80109
80020
79972
79941
79934
79927
79921
79931
79937
79944
79955
79992
80018
80010
80024
80020
80011
80006
80020
80046
80046
80072
80032
80058
80079
80079
80068
80089
80087
80107
80122
80140
80138
80154
80165
80162
80176
80186
80145
80067
79993
79935
79918
79932
79918
79899
79913
79954
79936
79961
80002
79993
80013
80006
80012
79994
79996
80002
80034
80009
80027
80065
80043
80056
80077
80073
80063
80086
80095
80114
80122
80122
80154
80178
80189
80175
80191
80186
80215
80213
80241
80221
80242
80218
80127
80044
80019
79984
79972
79999
79980
80016
80020
80038
80043
80100
80077
80093
80086
80090
80085
80089
80120
80076
80101
80105
80122
80135
80108
80127
80146
80146
80159
80168
80169
80176
80194
80202
80205
80217
80210
80207
80235
80235
80264
80227
80169
80086
80033
79983
79967
79963
79998
79984
79991
79992
80012
80016
80034
80043
80039
80047
80023
80014
80015
80046
80046
80052
80058
80057
80078
80085
80075
80087
80089
80092
80104
80118
80121
80114
80145
80124
80145
80129
80115
80048
79981
79923
79884
79887
79878
79877
79908
79884
79898
79905
79931
79954
79959
79964
79951
79943
79925
79950
79977
79957
79965
79960
79963
79989
80004
79992
79998
80008
80022
80018
80036
80052
80050
80063
80060
80087
80105
80097
80114
80130
80147
80055
79973
79910
79846
79820
79828
79814
79815
79842
79865
79855
79874
79887
79906
79930
79903
79926
79918
79908
79910
79928
79928
79935
79949
79959
79978
79984
79975
80026
80029
80042
80030
80049
80085
80080
80091
80106
80119
80127
80147
80167
80199
80209
80232
80233
80232
80251
80287
80211
80158
80060
80011
79977
79985
79997
79977
79988
79988
79996
80015
80039
80066
80083
80074
80064
80077
80068
80061
80079
80068
80089
80079
80098
80110
80106
80117
80118
80135
80136
80127
80153
80171
80169
80190
80184
80180
80219
80215
80214
80222
80135
80039
79982
79942
79947
79932
79955
79949
79958
79958
79979
80010
80002
80015
80048
80030
80024
80023
80019
80031
80035
80048
80050
80040
80074
80082
80075
80083
80090
80093
80120
80118
80136
80135
80135
80157
80159
80180
80104
80044
79960
79925
79929
79921
79899
79890
79913
79898
79925
79931
79952
79963
79980
79971
79967
79965
79972
79990
79996
79982
80032
80007
80010
80024
80032
80052
80057
80048
80066
80073
80065
80091
80101
80117
80129
80133
80140
80134
80173
80186
80197
80196
80213
80217
80216
80185
80085
80019
79945
79941
79927
79932
79934
79936
79951
79964
79972
80006
80022
80032
80052
80024
80022
80049
80038
80052
80038
80050
80089
80112
80102
80095
80106
80119
80137
80155
80141
80162
80169
80168
80160
80200
80210
80195
80213
80231
80234
80241
80247
80246
80265
80292
80276
80235
80153
80082
80029
80024
80015
80013
80034
80034
80044
80050
80058
80069
80063
80075
80060
80073
80062
80059
80045
80052
80055
80059
80053
80064
80063
80066
80085
80105
80094
80093
80116
80135
80122
80141
80149
80152
80169
80164
80171
80180
80156
80105
80016
79949
79930
79900
79904
79919
79910
79918
79933
79937
79960
79977
79983
79995
79992
79979
79964
79970
79983
79976
80012
79985
79997
80004
80031
80048
80036
80042
80062
80067
80071
80080
80092
80104
80121
80102
80107
80124
80139
80160
80162
80173
80205
80200
80128
80044
79951
79931
79907
79896
79894
79909
79875
79924
79917
79945
79955
79974
79990
79979
80029
80007
79996
79991
80012
80019
80027
80023
80031
80052
80054
80078
80075
80080
80091
80104
80137
80141
80162
80189
80177
80218
80210
80234
80239
80262
80278
80261
80325
80309
80318
80266
80206
80126
80081
80055
80040
80055
80081
80047
80062
80071
80092
80099
80114
80145
80125
80113
80143
80127
80133
80137
80148
80138
80151
80159
80161
80165
80177
80195
80200
80200
80214
80215
80228
80247
80247
80258
80281
80271
80261
80289
80268
80257
80172
80073
80050
80041
80041
80026
80026
80020
80040
80054
80067
80073
80089
80094
80099
80078
80109
80085
80067
80083
80084
80091
80103
80097
80099
80109
80122
80131
80129
80130
80147
80142
80167
80177
80191
80178
80182
80208
80156
80066
79994
79968
79949
79942
79925
79919
79942
79942
79962
79941
79962
79992
79994
79998
79990
80000
80004
79980
79989
79982
80004
80002
80002
80013
80033
80048
80062
80054
80047
80053
80053
80084
80090
80111
80120
80113
80117
80140
80157
80178
80165
80171
80069
79978
79933
79896
79882
79863
79871
79870
79875
79887
79887
79914
79949
79942
79962
79966
79966
80004
79992
79994
79994
80012
80017
80036
80033
80051
80058
80068
80099
80089
80103
80117
80141
80141
80195
80193
80195
80204
80208
80187
80178
80181
80167
80197
80204
80205
80170
80095
80018
79949
79936
79919
79908
79957
79960
79966
79966
79980
79977
80016
80024
80044
80032
80032
80037
80014
80038
80055
80046
80049
80063
80058
80056
80062
80079
80070
80083
80086
80099
80123
80116
80121
80143
80145
80176
80168
80190
80201
80200
80177
80105
79987
79960
79923
79919
79905
79920
79939
79939
79931
79938
79979
79982
79994
80025
80008
80020
80008
79985
79995
80020
80014
80032
80026
80050
80029
80059
80049
80080
80079
80114
80123
80108
80135
80113
80135
80151
80141
80180
80184
80194
80186
80115
80037
79985
79909
79917
79915
79914
79930
79924
79949
79940
79952
79971
79979
79984
80008
79997
80000
79994
80004
80006
80018
80019
80040
80045
80047
80057
80088
80090
80120
80128
80122
80136
80163
80171
80162
80192
80215
80222
80227
80221
80250
80283
80281
80267
80298
80311
80313
80274
80156
80109
80065
80056
80028
80036
80063
80049
80064
80076
80124
80130
80142
80140
80152
80151
80154
80154
80151
80148
80146
80180
80182
80196
80188
80184
80206
80224
80229
80244
80247
80258
80274
80235
80281
80278
80281
80300
80317
80300
80301
80295
80303
80307
80303
80268
80175
80084
80052
80012
80000
80009
80033
80035
80044
80055
80062
80067
80107
80100
80101
80090
80085
80096
80083
80097
80103
80096
80090
80122
80117
80131
80145
80135
80143
80149
80175
80183
80180
80188
80232
80194
80217
80226
80214
80226
80236
80214
80120
80041
79986
79973
79984
79954
79978
79977
79979
79985
80003
80037
80035
80054
80067
80036
80045
80051
80057
80054
80065
80067
80072
80078
80080
80103
80088
80114
80131
80129
80139
80145
80184
80163
80174
80205
80207
80200
80235
80233
80252
80265
80279
80295
80312
80328
80313
80281
80199
80134
80088
80056
80056
80051
80076
80084
80085
80086
80102
80128
80157
80164
80183
80211
80183
80171
80210
80205
80186
80199
80198
80206
80231
80229
80232
80226
80267
80257
80265
80289
80286
80307
80312
80330
80339
80325
80349
80366
80370
80376
80369
80368
80355
80297
80233
80159
80112
80104
80133
80108
80123
80135
80165
80155
80172
80207
80199
80217
80212
80190
80197
80200
80195
80196
80202
80210
80224
80214
80226
80222
80241
80248
80284
80258
80265
80280
80285
80291
80322
80334
80331
80347
80335
80337
80254
80185
80100
80062
80053
80043
80059
80073
80065
80080
80081
80099
80088
80096
80130
80132
80129
80119
80101
80115
80133
80147
80134
80139
80158
80156
80166
80172
80172
80189
80181
80214
80222
80232
80234
80232
80252
80259
80279
80257
80281
80188
80108
80045
79998
79979
79969
79975
79972
79960
79960
79997
79989
80007
80021
80041
80049
80040
80037
80032
80039
80072
80056
80046
80077
80078
80091
80086
80100
80117
80125
80137
80138
80183
80173
80185
80211
80205
80198
80228
80246
80243
80237
80198
80101
80035
79991
79981
79959
79951
79962
79963
79975
79983
79993
80016
80042
80047
80049
80043
80056
80062
80058
80043
80056
80056
80065
80096
80078
80088
80095
80105
80119
80103
80127
80142
80144
80168
80168
80162
80191
80188
80193
80196
80214
80199
80117
80047
79973
79935
79917
79896
79916
79881
79856
79852
79805
79804
79790
79750
79711
79641
79566
79501
79470
79458
79446
79437
79440
79454
79489
79486
79504
79529
79557
79561
79549
79536
79539
79536
79500
79470
79440
79389
79301
79189
79041
78934
78879
78819
78798
78831
78856
78878
78921
78908
78959
79019
79041
79058
79073
79082
79124
79148
79144
79180
79201
79197
79226
79241
79283
79308
79353
79362
79357
79347
79364
79387
79411
79446
79464
79475
79482
79497
79444
79403
79349
79332
79293
79295
79121
79031
78844
78403
77934
77310
76442
76007
75806
75632
75485
75487
75676
75813
75828
75924
76036
76239
76350
76373
76430
76458
76453
76488
76646
76803
76919
76989
77044
76907
76620
76445
76357
76313
76357
76435
76478
76547
76553
76600
76644
76692
76727
76795
76815
76794
76771
76801
76848
76877
76948
77013
77028
77021
77068
77089
77098
77134
77119
77066
76981
76882
76813
76755
76806
76828
76848
76905
76915
76963
77004
77045
77062
77102
77127
77113
77137
77124
77130
77155
77172
77210
77203
77199
77210
77286
77306
77313
77244
77178
77096
77014
76973
76948
76977
76969
77009
77006
77023
77047
77120
77131
77041
77009
76958
76901
76862
76827
76869
76892
76936
76963
76973
77011
77023
77057
77112
77122
77047
76901
76824
76724
76672
76808
77693
78760
79597
79814
80064
80506
80478
80592
80266
80187
80015
79815
79668
79609
79685
79758
79823
79876
79868
79908
79930
79859
79771
79668
79655
79667
79581
79445
79362
79250
79205
79238
79310
79339
79352
79431
79489
79576
79601
79620
79701
79711
79765
79816
79844
79835
79811
79772
79732
79629
79536
79467
79431
79418
79429
79431
79448
79471
79495
79494
79534
79534
79564
79597
79588
79605
79640
79618
79627
79639
79639
79660
79681
79720
79743
79708
79612
79564
79520
79486
79495
79456
79495
79521
79565
79558
79614
79628
79656
79673
79712
79735
79724
79743
79758
79795
79781
79807
79814
79831
79833
79860
79829
79758
79716
79670
79677
79705
79701
79727
79757
79755
79806
79822
79858
79870
79888
79893
79876
79881
79891
79882
79889
79912
79908
79908
79929
79916
79937
79941
79866
79803
79731
79677
79663
79652
79672
79661
79710
79749
79769
79793
79831
79863
79867
79891
79899
79909
79930
79931
79929
79950
79970
79998
79996
80018
80059
80054
80018
79951
79907
79858
79846
79837
79848
79882
79899
79951
79970
79985
80031
80057
80079
80076
80120
80125
80108
80131
80102
80126
80120
80132
80121
80158
80151
80096
80019
79935
79880
79863
79879
79890
79885
79907
79921
79931
79955
79994
79996
80002
80000
80006
79991
79970
79988
79983
79986
80011
79988
80000
80020
80018
79967
79876
79812
79808
79805
79797
79812
79833
79832
79856
79889
79907
79941
79950
79952
79955
79960
79973
79995
79980
80006
79987
80030
80041
80063
80045
80017
79940
79877
79864
79858
79848
79894
79904
79937
79934
79983
79992
80020
80013
79994
79989
80004
80009
80031
80038
80049
80045
80057
80084
80084
80073
80003
79944
79893
79868
79850
79852
79887
79921
79947
79975
80039
80028
80054
80079
80066
80046
80056
80047
80042
80060
80031
80046
80054
80068
80051
80013
79951
79869
79841
79820
79815
79829
79845
79860
79855
79867
79878
79864
79834
79776
79720
79443
79222
78990
78813
78803
78778
78742
78645
78826
78782
78504
77951
76638
75868
75625
76041
76151
76254
77188
77661
77913
78528
78364
78114
77903
77889
76166
74258
73853
75542
73958
71730
72792
73613
74112
74964
76751
79080
79377
79352
79288
78501
78809
79379
80331
80297
80217
80578
80331
80307
80218
79258
79384
78912
78356
78164
78667
79175
79436
79414
79323
79191
79106
79052
79059
79144
79211
79297
79308
79364
79450
79093
79046
78986
78917
78820
78778
78734
78688
78678
78649
78694
78668
78614
78541
78339
78061
77797
77586
77378
77239
77136
77041
76990
76963
76875
76821
76844
76830
76777
76716
76643
76592
76575
76482
76471
76395
76327
76255
76103
75957
75857
75832
75839
75830
75841
75865
75857
75873
75893
75894
75884
75896
75910
75949
76044
76093
76169
76235
76295
76382
76426
76385
76302
76214
76164
76173
76206
76221
76316
76447
76628
76895
77058
77191
77296
77413
77437
77492
77582
77665
77734
77722
77675
77565
77454
77328
77180
77060
77036
77039
77067
77126
77159
77226
77230
77243
77237
77263
77284
77338
77332
77337
77321
77353
77386
77374
77379
77351
77329
77266
77142
76989
76929
76939
76997
77049
77068
77112
77141
77153
77188
77172
77136
77075
77024
76999
76986
76970
76943
76929
76912
76924
76910
76878
76879
76807
76674
76566
76514
76488
76467
76449
76458
76468
76491
76503
76501
76503
76480
76478
76443
76449
76465
76463
76449
76446
76426
76427
76438
76438
76466
76445
76456
76391
76299
76233
76202
76164
76178
76184
76169
76145
76177
76202
76205
76198
76234
76288
76338
76433
76608
76728
76878
77082
77226
77253
77196
77173
77218
77284
77384
77465
77640
77772
77828
77778
77793
77830
77871
77875
77900
77908
77944
77991
78095
78221
78282
78273
78398
78470
78499
78550
78515
78497
78435
78351
78273
78305
78318
78331
78325
78347
78309
78311
78318
78336
78347
78343
78278
78200
78180
78159
78121
78082
78033
77978
77937
77873
77816
77768
77690
77611
77398
77262
77116
77059
76948
76826
76752
76706
76648
76633
76703
76771
76831
76887
76901
76937
76967
76969
77006
77044
77057
76969
76878
76793
76744
76734
76706
76706
76701
76707
76780
76893
76999
77057
77088
77059
77107
77182
77244
77285
77326
77425
77426
77467
77484
77495
77508
77513
77538
77529
77570
77582
77593
77564
77547
77578
77590
77569
77492
77403
77407
77398
77433
77472
77465
77466
77486
77510
77544
77567
77571
77577
77566
77539
77491
77495
77482
77473
77471
77440
77454
77476
77477
77457
77456
77459
77471
77484
77496
77520
77503
77491
77490
77494
77505
77491
77438
77373
77322
77311
77316
77323
77338
77340
77354
77382
77352
77378
77372
77375
77378
77366
77382
77383
77378
77385
77371
77385
77392
77402
77408
77414
77396
77423
77427
77404
77431
77413
77430
77436
77458
77454
77440
77420
77431
77391
77314
77261
77201
77210
77223
77211
77208
77223
77239
77245
77241
77257
77250
77246
77246
77256
77230
77234
77226
77230
77250
77245
77241
77260
77258
77262
77287
77282
77276
77281
77289
77361
77388
77406
77417
77329
77212
77115
76962
76814
76771
76782
76765
76660
76616
76493
76032
75470
74818
74313
74148
73815
73680
73597
73705
73528
73238
73043
73241
73484
73833
74062
74276
74323
74553
74851
75128
75346
75610
75902
76176
76491
76770
76966
76721
76474
76402
76508
76636
76803
76932
76852
76619
76514
76469
76426
76389
76336
76330
76292
76230
76196
76163
76090
76005
75943
75887
75863
75838
75850
75862
75870
75900
75838
75772
75700
75557
75333
75092
74899
74729
74566
74449
74307
74134
74006
73908
73822
73727
24539
24479
24543
24565
24582
24554
24462
24383
24304
40576
73763
73846
73940
73981
74039
74034
74056
74031
74063
74083
74115
74089
74046
74058
74104
74137
74214
74317
74452
74593
74812
74950
75041
75109
75162
75195
75206
75219
75244
75275
75297
75315
75330
75371
75399
75433
75464
75484
75481
75506
75517
75510
75515
75547
75541
75474
75416
75355
75362
75374
75393
75388
75388
75390
75433
75496
75496
75513
75506
75505
75527
75528
75546
75527
75505
75507
75510
75529
75518
75519
75527
75521
75532
75523
75538
75528
75533
75513
75430
75366
75308
75279
75266
75271
75247
75239
75215
75227
75198
75221
75213
75208
75200
75211
75206
75191
75193