234,-182,-43
-5529,-30507,77
-1986,-30465,78
-2946,-30465,72
-1989,-22941,39
59,-94,-13
54,-96,-15
52,-97,-17
53,-94,-21
57,-87,-29
64,-85,-31
67,-87,-35
69,-85,-38
67,-88,-40
61,-95,-38
53,-96,-40
46,-101,-43
40,-108,-41
30,-114,-45
24,-118,-48
18,-119,-51
10,-118,-50
5,-120,-55
1,-115,-60
-5,-112,-62
-5,-111,-62
-7,-107,-67
-7,-108,-66
-4,-102,-71
-4,-104,-71
-3,-102,-69
-1,-94,-70
1,-91,-72
5,-92,-71
3,-91,-72
6,-89,-69
5,-85,-71
4,-82,-74
5,-81,-71
3,-78,-68
0,-74,-68
-7,-73,-67
-9,-67,-62
-16,-65,-63
-22,-62,-58
-26,-61,-58
-25,-59,-58
-30,-58,-55
-30,-51,-56
-29,-52,-49
-26,-54,-51
-20,-60,-48
-17,-59,-46
-16,-65,-49
-17,-71,-44
-19,-76,-44
-22,-81,-37
-28,-89,-36
-37,-91,-37
-42,-95,-34
-49,-99,-33
-58,-99,-33
-69,-102,-31
-77,-105,-31
-90,-103,-31
-98,-106,-29
-110,-103,-29
-121,-102,-30
-130,-103,-32
-137,-107,-35
-146,-106,-41
-156,-106,-43
-169,-110,-48
-181,-108,-56
-194,-114,-61
-213,-120,-69
-232,-126,-79
-255,-141,-87
-280,-154,-93
-310,-174,-104
-342,-200,-111
-379,-228,-124
-421,-266,-132
-463,-310,-143
-506,-356,-156
-554,-414,-167
-606,-480,-184
-651,-551,-200
-700,-631,-215
-754,-713,-231
-803,-793,-254
-849,-851,-279
-895,-863,-301
-944,-849,-326
-991,-819,-346
-1033,-777,-367
-1069,-739,-388
-1101,-696,-407
-1132,-667,-424
-1161,-642,-440
-1189,-628,-450
-1215,-622,-457
-1244,-627,-464
-1269,-642,-467
-1292,-670,-470
-1308,-709,-470
-1320,-758,-477
-1330,-819,-476
-1335,-885,-479
-1339,-965,-478
-1334,-1046,-488
-1337,-1103,-499
-1344,-1144,-498
-1356,-1179,-496
-1370,-1204,-501
-1375,-1222,-501
-1381,-1231,-506
-1381,-1243,-512
-1377,-1254,-522
-1371,-1268,-527
-1360,-1288,-531
-1349,-1314,-533
-1335,-1344,-532
-1314,-1374,-536
-1285,-1401,-535
-1249,-1412,-541
-1209,-1402,-541
-1171,-1382,-532
-1127,-1343,-520
-1090,-1294,-504
-1047,-1247,-481
-1009,-1198,-456
-967,-1156,-437
-929,-1120,-411
-888,-1087,-385
-849,-1064,-359
-811,-1046,-332
-782,-1034,-305
-749,-1040,-279
-718,-1060,-257
-685,-1087,-232
-647,-1105,-215
-605,-1097,-195
-563,-1075,-173
-519,-1045,-152
-471,-1006,-135
-422,-970,-115
-370,-939,-99
-318,-912,-81
-266,-875,-60
-220,-828,-42
-174,-795,-26
-127,-783,-5
-83,-765,8
-43,-763,20
0,-769,31
44,-771,40
89,-765,44
124,-756,49
151,-733,59
169,-701,74
181,-660,88
191,-630,104
202,-593,119
209,-553,140
219,-518,160
226,-484,179
232,-457,195
242,-437,206
253,-423,212
260,-423,214
259,-426,214
255,-436,212
245,-446,208
237,-460,196
230,-468,187
231,-473,174
236,-468,164
237,-455,157
244,-429,148
248,-400,142
248,-367,139
250,-338,143
248,-304,144
250,-279,155
251,-251,159
253,-230,169
259,-212,180
261,-203,192
267,-196,202
276,-197,215
281,-197,226
292,-202,236
305,-206,239
316,-206,245
327,-203,250
346,-203,259
355,-194,267
370,-191,272
379,-178,278
384,-167,290
389,-156,300
390,-146,309
389,-134,315
381,-128,321
371,-116,323
352,-109,322
338,-105,321
318,-98,321
304,-96,317
287,-96,306
274,-91,300
260,-83,288
251,-70,279
244,-53,269
239,-39,256
235,-16,250
235,3,241
239,22,234
241,40,226
241,55,221
240,65,216
238,78,215
235,90,210
226,97,209
219,103,202
213,108,196
208,110,188
203,112,179
201,108,173
198,104,164
196,100,150
195,94,140
195,93,131
195,89,119
200,89,121
204,86,114
204,82,108
204,80,104
211,75,101
212,71,98
219,64,100
218,56,101
221,50,100
220,43,103
216,34,106
214,29,103
213,25,107
208,19,103
206,15,105
201,14,105
193,10,104
185,11,100
181,10,100
174,9,95
169,9,92
160,6,89
155,6,85
149,5,81
144,8,78
138,13,77
131,10,73
126,11,75
117,11,75
110,12,73
103,9,74
95,8,71
89,6,73
80,4,69
73,0,67
67,-9,64
64,-8,62
55,-10,57
48,-14,52
44,-18,48
43,-21,43
37,-28,38
31,-32,33
27,-38,28
21,-45,27
17,-53,23
11,-54,18
11,-61,15
12,-66,10
11,-70,4
7,-75,4
7,-79,0
9,-80,0
9,-85,-7
9,-89,-7
9,-88,-7
16,-91,-9
18,-94,-11
25,-94,-7
31,-96,-7
31,-99,-9
32,-99,-10
39,-104,-4
39,-111,-1
36,-110,1
35,-113,3
28,-113,8
27,-115,6
22,-117,7
19,-115,9
14,-115,6
12,-108,5
13,-107,7
14,-102,2
16,-99,0
20,-95,-3
28,-92,-4
30,-86,-6
37,-79,-10
45,-77,-11
53,-73,-9
55,-72,-11
62,-68,-14
66,-70,-14
69,-66,-11
70,-65,-13
67,-67,-9
66,-66,-10
63,-63,-7
59,-62,-4
57,-60,-3
49,-63,0
44,-62,2
41,-60,5
35,-57,7
29,-56,8
21,-54,9
19,-56,10
16,-54,7
9,-51,8
6,-54,8
4,-50,5
0,-51,3
-7,-47,0
-13,-47,1
-21,-46,-7
-28,-44,-8
-34,-42,-12
-39,-43,-11
-42,-43,-12
-47,-40,-15
-47,-42,-11
-51,-40,-18
-55,-41,-17
-53,-45,-14
-57,-46,-14
-55,-46,-12
-56,-47,-13
-53,-51,-14
-53,-51,-12
-48,-56,-8
-43,-53,-11
-41,-54,-11
-33,-51,-12
-30,-49,-14
-23,-47,-15
-17,-44,-9
-10,-44,-8
-6,-42,-4
-3,-40,-2
0,-37,1
5,-37,4
8,-42,9
13,-40,14
15,-43,17
18,-44,20
15,-45,22
22,-49,24
19,-50,24
19,-55,25
19,-56,26
21,-58,24
19,-58,19
21,-58,16
22,-58,18
21,-58,11
21,-56,8
18,-55,7
19,-48,2
15,-49,1
11,-41,-3
9,-41,-5
8,-41,-7
9,-41,-7
11,-41,-9
11,-46,-9
16,-52,-10
21,-56,-11
24,-62,-13
29,-66,-11
28,-68,-10
24,-68,-5
17,-69,-1
3,-62,6
-7,-58,10
-14,-53,15
-22,-47,15
-23,-40,18
-18,-33,18
-19,-28,14
-12,-24,10
-6,-23,6
0,-20,-1
7,-19,-6
17,-23,-9
22,-26,-16
31,-30,-21
41,-34,-24
50,-36,-32
60,-42,-40
64,-49,-41
76,-52,-42
83,-56,-42
91,-56,-41
94,-53,-45
97,-51,-36
98,-44,-30
98,-37,-24
96,-22,-16
91,-15,-10
84,-5,-5
77,4,1
66,13,8
58,21,11
48,29,16
37,35,21
30,39,22
23,43,23
17,43,23
9,44,23
3,43,25
-1,44,18
-7,41,21
-15,41,18
-19,46,15
-21,47,9
-21,47,4
-16,50,-2
-14,49,-5
-14,48,-7
-12,46,-7
-17,49,-13
-16,40,-10
-20,38,-7
-24,33,-6
-30,31,-6
-31,25,-2
-29,19,1
-33,16,2
-29,9,2
-26,9,7
-24,5,9
-18,3,12
-16,5,13
-10,3,17
-7,5,20
0,6,22
8,6,25
11,7,28
17,6,31
24,2,35
30,2,35
36,-3,39
41,-4,40
48,-4,41
49,-4,40
52,-6,39
55,-8,42
53,-11,39
54,-18,39
49,-18,33
49,-18,29
45,-20,29
40,-23,29
39,-28,26
35,-31,25
34,-40,23
31,-41,20
26,-46,18
26,-48,14
25,-47,14
23,-54,12
23,-56,6
22,-56,7
21,-60,4
20,-61,3
18,-61,3
15,-66,6
13,-66,3
16,-70,4
14,-72,0
16,-78,4
17,-78,0
18,-79,0
17,-78,0
18,-78,-3
19,-78,-6
17,-73,-10
24,-70,-11
26,-62,-12
28,-54,-13
29,-47,-14
29,-34,-16
36,-28,-16
38,-17,-15
42,-8,-11
49,-4,-10
55,0,-8
62,5,-6
69,6,0
78,6,5
86,11,11
92,14,16
101,18,26
107,25,30
111,39,43
111,53,52
116,75,63
115,95,69
120,117,78
121,144,82
123,169,93
128,199,100
133,231,109
136,265,118
145,290,123
153,318,131
161,344,141
171,366,146
182,385,158
190,405,161
203,422,171
213,441,174
221,462,180
231,482,185
241,500,190
245,518,196
250,544,199
256,566,204
261,588,205
266,607,205
272,627,210
280,640,213
283,652,209
290,658,210
294,669,207
297,673,206
301,679,207
300,680,206
302,684,207
303,689,208
303,696,213
301,704,217
299,717,219
296,724,226
293,732,228
285,742,223
282,749,223
276,754,220
272,759,213
270,760,207
264,764,202
262,765,195
258,767,187
253,773,182
251,771,183
250,772,182
252,771,182
252,773,187
251,773,197
254,777,201
259,774,210
262,769,217
268,769,221
279,764,229
302,765,228
287,779,237
299,771,253
301,765,268
303,751,280
308,747,293
312,740,305
321,738,316
338,731,321
354,713,323
365,716,327
376,698,331
381,678,333
383,652,347
385,631,357
390,609,363
385,598,369
385,592,380
381,588,383
379,586,390
377,586,391
378,589,391
371,595,394
368,594,396
360,601,399
352,603,404
348,612,407
344,618,414
337,621,417
330,630,421
323,627,432
312,634,436
303,631,449
293,634,462
282,630,473
277,626,483
273,627,491
265,630,501
260,635,511
260,635,519
256,643,529
258,656,539
262,675,542
269,700,548
277,729,547
288,750,547
296,784,547
306,821,546
314,845,544
321,865,544
327,875,546
333,879,548
336,882,548
339,886,551
345,884,552
349,890,556
351,893,562
350,895,566
349,901,568
354,908,565
354,914,567
356,921,570
355,920,577
350,925,577
347,926,579
342,926,577
333,927,579
327,924,584
321,927,582
315,920,579
308,913,580
308,899,573
308,890,565
306,875,555
310,863,549
311,844,536
318,831,522
324,813,514
330,797,506
340,780,495
342,763,484
347,751,477
348,739,467
351,730,460
354,721,451
355,712,441
355,707,433
355,693,432
355,686,424
358,679,420
356,671,415
355,663,412
352,656,409
346,650,407
340,640,407
331,635,404
319,628,398
306,619,400
292,608,400
277,598,397
259,585,394
247,570,393
233,557,388
224,543,383
221,530,374
218,513,366
216,495,355
219,472,342
221,444,328
227,420,317
227,394,300
232,368,288
230,339,275
229,308,267
226,276,259
227,246,251
223,216,238
223,186,229
221,157,218
219,127,208
216,97,198
217,66,192
221,37,184
226,12,174
231,-16,163
240,-46,154
249,-72,144
261,-97,133
273,-124,126
286,-150,120
299,-173,112
309,-194,103
327,-211,99
343,-230,96
358,-245,92
371,-257,94
382,-261,93
393,-268,93
405,-270,92
414,-270,91
420,-264,85
423,-258,81
427,-252,74
427,-245,70
427,-234,62
422,-228,55
420,-219,50
416,-206,42
412,-202,37
411,-189,31
413,-182,27
414,-178,19
414,-168,8
424,-163,3
430,-153,-3
435,-139,-10
437,-128,-18
442,-111,-27
442,-96,-37
433,-79,-43
429,-66,-48
419,-52,-53
408,-35,-61
400,-23,-67
389,-10,-79
374,0,-82
360,2,-90
342,3,-95
327,5,-105
311,4,-110
296,3,-119
284,-2,-128
274,-6,-139
273,-16,-152
271,-24,-159
273,-35,-169
278,-41,-180
279,-49,-189
282,-58,-197
280,-69,-200
278,-79,-199
280,-97,-197
275,-116,-194
273,-137,-192
272,-151,-187
268,-170,-189
263,-185,-187
258,-201,-186
259,-213,-191
261,-225,-196
259,-234,-205
268,-245,-211
277,-252,-219
290,-261,-231
299,-266,-239
317,-272,-247
335,-282,-256
357,-294,-268
380,-305,-279
408,-322,-288
436,-339,-298
463,-353,-304
494,-367,-310
521,-379,-319
553,-391,-324
581,-394,-327
612,-400,-330
643,-403,-340
672,-403,-339
706,-405,-342
740,-403,-344
769,-397,-349
801,-392,-350
825,-383,-357
844,-373,-366
859,-363,-369
871,-354,-376
878,-346,-386
879,-344,-398
883,-345,-412
882,-345,-422
878,-343,-439
877,-337,-453
873,-333,-467
868,-331,-480
865,-321,-498
859,-313,-512
857,-302,-531
855,-291,-546
847,-283,-564
839,-277,-571
829,-276,-581
818,-275,-592
805,-281,-604
788,-289,-617
767,-303,-631
747,-318,-643
727,-335,-659
707,-342,-671
687,-352,-691
666,-359,-706
649,-369,-725
633,-373,-743
618,-376,-759
607,-382,-780
593,-386,-799
585,-390,-816
577,-392,-832
569,-398,-848
560,-402,-862
549,-410,-874
544,-420,-885
536,-435,-891
534,-455,-904
528,-480,-914
527,-511,-923
530,-548,-930
537,-582,-937
547,-607,-949
561,-618,-959
572,-613,-967
590,-589,-981
599,-553,-994
616,-510,-1005
625,-466,-1012
637,-423,-1015
646,-390,-1023
657,-364,-1024
670,-348,-1027
681,-340,-1026
691,-345,-1021
706,-359,-1016
716,-380,-1006
727,-398,-994
739,-422,-981
749,-439,-966
762,-458,-946
772,-472,-929
785,-485,-905
804,-493,-881
823,-497,-858
842,-504,-830
859,-505,-798
873,-506,-768
885,-503,-732
889,-495,-693
884,-485,-651
873,-473,-608
861,-465,-562
846,-458,-517
832,-451,-470
819,-444,-427
808,-438,-385
802,-425,-348
794,-415,-316
797,-406,-291
800,-395,-270
805,-386,-250
813,-375,-231
818,-361,-220
830,-353,-209
838,-341,-202
847,-331,-198
853,-316,-194
855,-303,-194
855,-291,-198
851,-286,-192
841,-276,-194
830,-267,-197
816,-250,-199
798,-229,-204
778,-212,-207
756,-187,-213
737,-161,-213
714,-135,-221
697,-114,-229
682,-90,-224
667,-69,-226
659,-45,-225
649,-33,-224
647,-20,-227
647,-10,-226
643,0,-220
648,2,-218
651,6,-209
655,19,-209
659,29,-208
666,46,-205
678,57,-203
691,67,-206
705,80,-205
723,89,-204
739,103,-201
755,114,-201
768,124,-195
780,133,-194
787,143,-187
794,145,-183
792,155,-180
795,169,-179
800,187,-182
803,207,-182
808,231,-186
811,257,-191
815,278,-192
819,300,-191
823,319,-191
830,338,-189
839,352,-186
848,366,-190
866,374,-188
882,383,-184
904,387,-185
928,390,-185
961,391,-192
997,390,-198
1045,393,-208
1100,384,-219
1157,382,-232
1216,377,-246
1276,379,-257
1331,391,-262
1381,410,-266
1431,437,-270
1468,475,-269
1497,517,-266
1523,558,-260
1546,597,-252
1562,638,-244
1571,670,-230
1579,700,-223
1584,719,-208
1593,732,-194
1595,735,-185
1598,728,-179
1606,713,-175
1616,683,-172
1633,646,-171
1650,604,-166
1671,563,-165
1703,529,-169
1732,493,-164
1767,468,-162
1798,447,-158
1820,426,-157
1839,411,-147
1852,390,-139
1855,381,-128
1849,371,-114
1848,359,-99
1835,346,-86
1829,335,-75
1820,314,-62
1819,293,-53
1818,261,-45
1816,225,-34
1816,182,-28
1817,143,-22
1817,113,-21
1825,87,-23
1833,66,-24
1838,56,-22
1843,43,-25
1846,39,-24
1848,30,-24
1851,28,-22
1850,25,-18
1848,21,-19
1847,22,-13
1842,19,-9
1834,21,-4
1828,20,-1
1824,22,-5
1820,26,0
1812,31,6
1802,39,12
1789,44,19
1772,51,24
1761,60,34
1747,64,36
1734,76,40
1724,89,38
1718,100,36
1717,108,34
1712,116,29
1711,114,22
1706,105,10
1706,94,-2
1708,85,-16
1713,75,-33
1718,72,-50
1727,75,-65
1734,81,-79
1737,99,-97
1737,118,-103
1733,143,-112
1724,178,-114
1714,219,-114
1707,260,-115
1697,307,-111
1689,350,-110
1680,393,-107
1682,426,-106
1683,457,-100
1692,485,-95
1703,510,-93
1720,532,-87
1740,549,-81
1768,567,-76
1795,584,-66
1823,600,-66
1859,616,-59
1896,632,-58
1933,647,-54
1971,664,-52
2008,683,-49
2046,700,-47
2079,722,-43
2115,740,-41
2146,758,-29
2183,772,-21
2209,790,-16
2242,809,-15
2281,833,-5
2323,854,-2
2368,882,3
2413,913,9
2458,946,15
2499,986,27
2535,1023,38
2570,1068,53
2596,1115,67
2622,1162,84
2648,1207,101
2667,1257,122
2684,1304,136
2699,1344,153
2714,1379,167
2734,1409,182
2748,1436,191
2762,1457,199
2779,1479,205
2794,1487,211
2809,1503,214
2817,1513,224
2818,1521,233
2812,1526,241
2806,1531,253
2789,1531,265
2776,1525,277
2767,1520,284
2757,1514,296
2747,1509,307
2739,1490,319
2736,1478,324
2736,1463,340
2743,1439,353
2750,1412,360
2765,1382,374
2771,1354,384
2785,1324,398
2798,1298,410
2809,1273,431
2820,1255,443
2827,1241,458
2830,1231,480
2833,1219,497
2830,1206,518
2826,1189,542
2821,1165,565
2814,1132,590
2805,1101,613
2798,1064,633
2796,1021,655
2793,977,674
2792,929,690
2790,878,707
2787,828,723
2783,773,741
2779,723,757
2770,671,773
2760,623,791
2749,576,804
2734,540,820
2713,511,827
2697,487,838
2676,470,847
2656,457,849
2639,444,852
2616,441,854
2593,438,853
2566,442,857
2536,445,857
2508,450,855
2476,454,856
2452,453,853
2427,457,851
2408,458,844
2395,454,840
2390,450,831
2379,441,823
2376,428,818
2367,417,810
2360,401,811
2355,386,810
2347,370,810
2334,357,812
2321,347,820
2304,338,826
2289,334,830
2272,335,836
2253,334,847
2235,329,851
2214,321,857
2188,310,865
2171,295,870
2149,276,875
2129,246,881
2110,214,883
2092,172,886
2078,132,885
2067,91,880
2059,52,881
2047,10,873
2037,-26,869
2024,-66,867
2011,-103,863
1996,-144,860
1979,-179,859
1963,-208,852
1950,-231,847
1936,-251,840
1927,-266,829
1920,-275,818
1912,-286,809
1904,-289,797
1897,-295,784
1890,-297,774
1879,-303,766
1869,-305,758
1856,-309,750
1843,-314,740
1834,-320,735
1826,-327,722
1819,-336,717
1813,-341,706
1808,-344,698
1811,-350,686
1814,-347,673
1824,-342,663
1834,-332,656
1848,-321,648
1861,-309,644
1878,-294,644
1895,-276,639
1916,-259,645
1929,-236,648
1946,-217,648
1952,-196,651
1960,-178,656
1959,-164,663
1952,-158,673
1940,-155,680
1921,-158,693
1900,-164,702
1879,-172,711
1852,-181,712
1827,-189,719
1799,-203,721
1774,-212,720
1746,-219,718
1717,-232,715
1690,-235,708
1664,-243,701
1633,-246,687
1599,-244,679
1567,-242,666
1533,-238,654
1497,-233,636
1462,-228,620
1429,-217,606
1395,-212,586
1362,-208,567
1328,-197,546
1299,-191,524
1272,-186,507
1244,-179,480
1220,-177,459
1200,-172,434
1180,-172,411
1162,-171,391
1149,-173,365
1129,-174,342
1114,-174,322
1093,-175,306
1075,-175,287
1056,-174,270
1042,-173,250
1026,-171,235
1010,-169,216
998,-160,197
980,-148,185
970,-142,167
958,-129,151
946,-122,137
943,-116,121
940,-107,100
942,-104,83
951,-100,65
959,-94,46
964,-92,35
974,-83,17
982,-79,6
993,-71,-1
1001,-60,-14
1006,-48,-24
1008,-29,-32
1009,-15,-39
1008,-4,-46
1002,3,-51
999,9,-55
994,17,-55
990,21,-63
987,30,-66
984,37,-73
983,46,-79
982,56,-85
977,70,-91
982,83,-96
986,98,-111
992,118,-120
999,141,-127
1008,162,-141
1018,189,-153
1027,210,-158
1035,227,-165
1043,237,-169
1051,237,-171
1060,231,-171
1064,217,-169
1069,194,-164
1072,170,-158
1072,138,-156
1072,106,-151
1070,77,-147
1063,47,-144
1054,22,-142
1045,-10,-140
1031,-30,-134
1021,-49,-137
1013,-58,-137
1001,-58,-142
992,-54,-146
987,-49,-151
984,-39,-164
982,-27,-173
981,-14,-180
979,2,-189
980,18,-196
978,27,-197
980,38,-201
984,44,-204
989,46,-199
991,43,-195
998,39,-191
1003,35,-183
1008,29,-174
1014,25,-164
1018,20,-154
1027,16,-142
1032,10,-132
1035,3,-119
1041,-3,-108
1055,-7,-95
1063,-12,-83
1071,-24,-70
1079,-35,-57
1092,-47,-42
1104,-62,-26
1111,-82,-12
1121,-105,4
1131,-132,15
1141,-167,29
1149,-200,41
1157,-234,55
1161,-265,68
1170,-296,77
1176,-322,85
1182,-346,91
1185,-364,94
1195,-383,98
1195,-392,101
1197,-404,97
1193,-409,96
1191,-411,91
1181,-410,85
1174,-412,80
1167,-409,70
1156,-409,67
1139,-409,64
1128,-412,66
1113,-418,60
1095,-424,63
1078,-432,64
1062,-440,68
1049,-443,69
1043,-443,71
1034,-441,70
1034,-429,66
1034,-417,64
1044,-395,61
1050,-376,60
1059,-354,49
1065,-325,43
1071,-300,34
1076,-280,26
1081,-262,20
1089,-253,16
1091,-247,11
1094,-249,8
1098,-251,7
1099,-263,12
1099,-277,13
1097,-287,20
1097,-296,25
1093,-302,29
1090,-307,38
1090,-305,47
1085,-305,53
1085,-299,63
1079,-287,72
1079,-279,76
1075,-264,84
1073,-244,93
1071,-229,100
1066,-209,108
1062,-196,113
1059,-180,120
1056,-168,126
1056,-159,128
1057,-154,130
1055,-150,134
1060,-145,137
1066,-144,137
1074,-135,140
1083,-131,140
1094,-122,142
1104,-108,143
1111,-96,148
1124,-83,150
1128,-69,153
1139,-50,158
1146,-29,159
1154,-10,166
1159,12,165
1166,31,170
1169,56,170
1178,73,176
1186,93,183
1190,117,185
1200,135,187
1212,150,190
1224,164,194
1242,176,198
1256,180,201
1273,185,207
1293,186,219
1312,192,229
1326,194,244
1342,197,260
1358,203,279
1370,213,301
1379,228,316
1383,237,333
1391,251,351
1392,262,364
1395,276,376
1395,290,388
1393,298,398
1397,308,402
1392,316,409
1390,323,410
1392,324,412
1392,326,408
1390,324,408
1391,323,397
1395,322,391
1400,322,381
1403,315,375
1404,307,368
1411,297,365
1415,281,364
1414,269,366
1414,251,368
1407,232,377
1406,212,383
1401,193,396
1399,173,404
1395,153,418
1390,137,433
1385,122,448
1377,112,456
1368,106,474
1359,109,489
1343,115,502
1323,129,518
1312,150,526
1302,167,539
1300,185,547
1304,197,554
1315,206,563
1336,217,567
1368,224,573
1404,228,577
1447,233,586
1495,237,593
1546,240,601
1593,245,615
1639,252,624
1680,255,639
1708,257,657
1733,261,670
1749,265,684
1756,271,699
1758,274,710
1762,272,718
1766,261,717
1771,242,718
1777,215,719
1778,189,716
1782,155,713
1781,127,709
1777,95,706
1765,71,706
1748,51,697
1728,46,696
1706,39,689
1682,40,679
1651,41,673
1620,53,665
1590,54,659
1558,61,643
1526,64,631
1494,69,618
1463,67,601
1430,64,582
1401,55,567
1373,40,550
1349,31,530
1324,18,512
1303,10,492
1284,5,471
1268,0,449
1253,3,427
1239,6,405
1221,12,383
1205,19,362
1185,31,349
1162,38,335
1136,47,322
1109,57,311
1081,69,303
1055,77,296
1037,87,290
1022,95,285
1010,101,283
1011,104,281
1027,97,278
1051,93,278
1085,83,279
1123,70,283
1163,54,288
1202,39,295
1238,24,303
1265,14,313
1280,8,325
1282,5,342
1267,8,352
1238,21,369
1192,46,383
1138,70,396
1071,100,400
1005,134,401
950,160,394
904,189,378
871,222,353
854,246,321
851,276,291
856,305,249
860,326,211
871,338,170
873,348,137
866,361,110
849,373,82
823,386,62
792,397,43
755,404,31
715,404,21
676,399,14
637,386,10
602,365,9
578,341,10
552,311,8
538,276,14
525,246,17
515,216,25
504,188,28
500,168,34
492,152,36
485,136,43
485,123,48
486,104,50
487,89,53
490,70,61
492,52,68
494,31,75
496,13,82
496,-3,86
502,-18,88
503,-27,88
501,-33,90
498,-30,81
493,-30,71
492,-25,60
491,-16,49
492,-2,28
495,15,10
500,31,-7
508,53,-22
514,68,-41
512,80,-48
513,85,-60
508,87,-58
499,83,-59
493,73,-57
485,59,-49
481,43,-42
481,20,-33
485,-5,-20
493,-26,-11
502,-54,6
512,-77,24
519,-99,44
532,-114,63
540,-122,78
550,-130,91
562,-130,105
571,-120,112
574,-107,118
577,-93,121
570,-72,121
561,-52,122
546,-31,117
530,-11,115
511,4,111
489,19,103
470,32,92
458,40,86
442,47,77
430,50,67
425,53,54
425,54,47
428,56,34
434,55,21
443,51,11
457,54,2
471,56,-8
478,59,-15
479,63,-19
474,72,-23
467,77,-24
450,86,-22
429,97,-23
405,107,-20
372,112,-23
339,121,-28
303,127,-33
264,130,-38
227,135,-50
188,136,-59
159,136,-74
134,136,-82
111,136,-98
96,132,-114
84,127,-124
82,117,-131
75,107,-138
74,94,-139
69,80,-139
62,69,-134
57,52,-125
51,46,-116
43,33,-108
34,28,-99
28,22,-89
22,27,-83
20,30,-76
18,38,-68
15,47,-60
11,54,-51
7,67,-49
6,80,-41
-3,91,-34
-4,100,-26
-12,101,-16
-22,108,-9
-30,109,0
-45,112,4
-62,116,3
-80,119,5
-97,127,5
-117,138,-2
-130,140,-15
-142,149,-26
-155,157,-41
-159,166,-60
-169,169,-78
-180,175,-99
-190,178,-119
-200,171,-136
-213,161,-158
-228,156,-173
-242,142,-185
-258,127,-200
-271,111,-210
-285,96,-222
-299,85,-231
-316,75,-245
-330,62,-258
-346,50,-269
-354,43,-281
-367,29,-291
-374,23,-302
-377,15,-313
-381,11,-325
-377,2,-333
-378,-11,-342
-372,-20,-348
-369,-39,-359
-363,-61,-366
-358,-84,-374
-354,-111,-378
-339,-143,-383
-320,-181,-384
-290,-225,-378
-252,-273,-373
-213,-323,-359
-171,-373,-340
-129,-423,-317
-85,-466,-288
-53,-506,-256
-29,-532,-226
-10,-548,-201
8,-548,-178
22,-545,-171
33,-532,-156
39,-517,-152
44,-504,-148
43,-486,-151
38,-467,-152
22,-445,-161
4,-420,-166
-20,-399,-175
-49,-375,-188
-79,-353,-195
-120,-330,-206
-157,-309,-214
-198,-289,-222
-240,-271,-232
-276,-254,-239
-313,-240,-253
-346,-225,-259
-380,-216,-271
-412,-208,-278
-445,-208,-289
-474,-200,-297
-507,-196,-303
-539,-197,-312
-570,-202,-321
-606,-208,-325
-645,-214,-335
-689,-225,-338
-739,-234,-349
-787,-246,-356
-842,-255,-366
-896,-267,-380
-952,-278,-401
-1014,-291,-419
-1071,-299,-441
-1138,-317,-466
-1203,-336,-492
-1275,-356,-518
-1350,-381,-544
-1432,-406,-568
-1519,-429,-590
-1609,-455,-607
-1706,-477,-623
-1805,-500,-639
-1904,-521,-650
-2003,-546,-661
-2099,-568,-675
-2191,-585,-692
-2283,-606,-705
-2364,-625,-722
-2439,-645,-736
-2502,-662,-756
-2561,-678,-769
-2608,-690,-788
-2647,-696,-797
-2680,-703,-805
-2704,-701,-815
-2721,-699,-817
-2735,-694,-817
-2744,-688,-813
-2750,-678,-806
-2753,-667,-794
-2755,-656,-780
-2758,-649,-764
-2763,-635,-748
-2765,-625,-729
-2764,-614,-709
-2762,-598,-690
-2757,-578,-669
-2745,-560,-651
-2727,-539,-635
-2706,-525,-618
-2683,-508,-601
-2653,-493,-581
-2624,-477,-564
-2591,-457,-547
-2560,-441,-533
-2526,-425,-514
-2489,-411,-498
-2453,-398,-478
-2410,-391,-460
-2376,-389,-439
-2336,-390,-416
-2296,-400,-396
-2255,-408,-377
-2211,-428,-354
-2165,-449,-333
-2119,-468,-310
-2073,-489,-289
-2024,-510,-273
-1975,-525,-257
-1920,-538,-242
-1870,-550,-228
-1822,-551,-218
-1764,-555,-205
-1711,-552,-196
-1659,-545,-186
-1606,-536,-174
-1551,-526,-166
-1500,-511,-156
-1453,-492,-146
-1406,-475,-139
-1361,-456,-128
-1318,-440,-117
-1274,-423,-105
-1237,-403,-94
-1200,-390,-78
-1166,-376,-66
-1134,-359,-50
-1104,-343,-38
-1075,-326,-25
-1042,-314,-11
-1011,-298,1
-983,-288,6
-951,-271,18
-920,-256,33
-893,-249,41
-867,-240,54
-840,-236,64
-815,-227,74
-792,-225,85
-770,-223,94
-748,-218,102
-726,-215,108
-705,-207,115
-683,-200,120
-663,-191,124
-646,-187,130
-629,-176,138
-615,-169,140
-603,-166,144
-593,-163,154
-585,-157,158
-575,-155,164
-570,-156,169
-559,-159,171
-552,-162,176
-534,-170,179
-515,-170,178
-497,-176,179
-478,-180,181
-452,-179,182
-430,-185,186
-409,-187,187
-385,-193,191
-369,-202,199
-349,-214,206
-331,-224,215
-314,-234,226
-299,-243,236
-283,-253,245
-272,-256,255
-257,-256,267
-246,-251,277
-236,-248,287
-224,-243,298
-210,-237,306
-189,-235,311
-167,-229,313
-142,-225,319
-109,-218,325
-83,-209,328
-51,-197,331
-20,-184,333
11,-167,334
41,-145,337
65,-121,338
88,-95,344
108,-69,352
119,-40,359
126,-14,367
127,8,378
127,27,388
122,36,398
114,36,409
108,34,422
91,22,433
81,6,442
65,-10,451
53,-33,454
40,-56,461
28,-77,462
19,-96,460
4,-107,456
-10,-111,445
-26,-110,438
-44,-105,421
-67,-86,403
-85,-75,387
-112,-61,368
-133,-55,349
-158,-50,335
-182,-47,317
-206,-47,303
-228,-55,290
-252,-60,273
-268,-72,258
-280,-82,241
-281,-94,224
-269,-105,208
-254,-122,189
-233,-134,171
-206,-149,159
-187,-163,149
-166,-177,146
-148,-187,136
-129,-202,133
-111,-214,132
-100,-223,132
-91,-226,132
-87,-232,135
-86,-232,147
-91,-230,151
-98,-225,153
-106,-216,160
-116,-201,160
-123,-188,163
-130,-168,160
-131,-154,162
-137,-139,159
-136,-133,160
-133,-126,155
-135,-125,150
-139,-123,150
-143,-127,149
-145,-130,147
-156,-136,148
-161,-146,151
-164,-152,146
-170,-150,144
-174,-144,141
-182,-131,137
-183,-118,134
-188,-106,134
-194,-98,136
-202,-87,131
-202,-78,138
-204,-65,140
-202,-47,137
-200,-30,138
-193,-13,139
-193,4,136
-191,20,139
-192,32,133
-200,42,131
-206,49,119
-215,51,111
-219,44,99
-227,35,91
-227,26,76
-223,14,62
-209,3,46
-194,-8,29
-168,-23,13
-143,-38,3
-117,-52,-10
-88,-57,-19
-62,-53,-29
-37,-46,-34
-19,-38,-34
-7,-30,-35
-4,-18,-32
-4,-4,-25
-9,8,-22
-15,18,-13
-27,30,-1
-37,38,5
-49,46,15
-57,58,22
-62,70,32
-64,91,33
-65,108,35
-70,125,31
-74,141,29
-78,155,28
-86,158,28
-96,154,34
-110,147,36
-125,137,47
-139,120,55
-154,102,63
-172,83,72
-188,69,79
-211,62,88
-224,61,94
-238,61,92
-243,69,90
-249,81,88
-253,93,83
-253,105,74
-253,117,66
-252,126,56
-249,130,44
-249,134,38
-253,142,30
-258,152,22
-255,165,14
-254,174,2
-246,190,-9
-238,205,-20
-225,231,-34
-207,252,-45
-187,274,-57
-168,286,-71
-151,300,-82
-134,311,-91
-128,316,-97
-117,313,-103
-116,299,-103
-108,281,-104
-116,253,-100
-124,225,-91
-144,197,-81
-170,174,-74
-201,158,-64
-236,151,-63
-267,152,-65
-299,149,-63
-330,140,-67
-358,137,-69
-388,129,-80
-416,124,-86
-443,118,-100
-460,109,-115
-476,96,-130
-486,81,-145
-489,65,-162
-487,47,-180
-486,36,-197
-473,21,-218
-459,11,-236
-438,7,-248
-417,5,-267
-401,10,-283
-383,14,-298
-375,14,-308
-367,16,-323
-363,17,-336
-363,24,-346
-360,36,-355
-357,50,-360
-355,65,-371
-349,83,-377
-340,98,-385
-333,107,-387
-322,118,-395
-316,117,-399
-305,113,-404
-295,107,-406
-287,92,-406
-278,78,-408
-274,61,-407
-270,39,-410
-269,23,-410
-268,6,-416
-270,-5,-413
-268,-18,-423
-266,-30,-423
-260,-34,-432
-254,-36,-436
-246,-35,-433
-248,-41,-432
-245,-56,-426
-247,-80,-421
-245,-120,-410
-248,-164,-394
-251,-209,-382
-252,-255,-367
-246,-301,-350
-240,-346,-333
-231,-391,-321
-217,-432,-310
-199,-461,-300
-181,-486,-292
-160,-501,-278
-137,-510,-270
-111,-512,-262
-87,-509,-254
-65,-502,-246
-46,-489,-238
-29,-476,-229
-12,-462,-219
-2,-447,-212
5,-437,-207
12,-435,-199
17,-434,-193
21,-439,-183
18,-444,-178
18,-446,-171
18,-454,-167
16,-453,-164
20,-451,-158
23,-447,-151
31,-440,-149
34,-429,-150
43,-417,-145
45,-406,-140
45,-391,-137
40,-378,-134
33,-363,-133
26,-346,-125
15,-337,-120
8,-327,-116
2,-317,-108
-2,-315,-98
-6,-311,-92
-8,-318,-85
-10,-326,-80
-14,-334,-71
-16,-342,-65
-21,-352,-54
-23,-357,-45
-29,-357,-34
-33,-354,-22
-35,-350,-15
-41,-342,-3
-34,-333,7
-29,-324,17
-19,-318,23
-3,-312,38
11,-309,44
28,-305,53
46,-309,63
65,-314,71
85,-322,79
105,-337,89
126,-343,98
144,-352,105
156,-355,112
166,-349,115
179,-343,122
188,-332,123
193,-314,126
195,-299,126
190,-282,129
183,-265,129
177,-251,131
166,-244,131
157,-229,131
143,-223,128
132,-217,127
122,-213,126
121,-209,124
126,-203,116
133,-197,110
137,-192,106
146,-184,99
155,-170,96
162,-156,89
177,-143,86
185,-131,84
192,-121,85
193,-112,84
195,-108,84
191,-106,85
189,-108,84
179,-104,89
172,-103,94
160,-102,94
147,-96,97
133,-85,95
126,-80,97
120,-75,94
114,-73,89
110,-78,85
112,-80,84
111,-87,82
115,-90,79
116,-92,86
117,-94,87
121,-94,92
120,-91,93
123,-90,99
124,-84,97
127,-76,102
129,-67,102
125,-57,101
125,-42,102
120,-33,98
113,-28,95
107,-26,96
98,-24,94
88,-27,91
81,-30,90
77,-39,90
68,-44,90
59,-46,90
53,-52,94
46,-58,93
45,-62,95
48,-65,95
44,-67,94
44,-68,92
40,-69,88
41,-67,86
41,-62,76
40,-57,73
43,-53,64
45,-49,59
47,-46,54
47,-43,48
49,-40,44
45,-39,43
36,-38,40
29,-38,40
18,-41,41
8,-42,37
-2,-41,31
-9,-40,34
-17,-37,29
-19,-34,27
-17,-36,24
-17,-30,21
-8,-29,21
-6,-28,17
-2,-26,16
2,-25,16
7,-27,15
8,-25,18
9,-22,18
7,-23,18
5,-29,17
3,-35,19
1,-42,21
-5,-48,22
-10,-55,20
-14,-65,24
-14,-71,22
-16,-81,25
-16,-86,22
-11,-93,19
-4,-93,19
-1,-93,16
3,-88,15
7,-82,13
12,-72,14
11,-63,13
9,-53,13
5,-45,16
-1,-34,13
-6,-29,14
-11,-24,15
-18,-22,13
-25,-24,14
-36,-24,15
-41,-30,11
-51,-28,17
-52,-33,17
-54,-33,15
-55,-38,12
-57,-39,12
-56,-39,3
-53,-34,1
-52,-33,-1
-45,-32,-4
-42,-29,-11
-44,-26,-14
-39,-24,-17
-39,-22,-18
-40,-22,-15
-40,-18,-12
-45,-16,-15
-45,-12,-15
-45,-7,-11
-46,-8,-9
-45,-8,-11
-43,-7,-8
-39,-3,-8
-41,-5,-1
-38,-4,-2
-37,-7,-3
-34,-8,-5
-30,-9,-1
-28,-7,-4
-24,-9,-5
-19,-7,-4
-18,-7,-1
-15,-7,0
-10,-10,0
-10,-12,5
-10,-13,6
-7,-16,11
-5,-20,7
-5,-19,9
-3,-16,5
0,-12,4
2,-11,0
4,-5,-3
3,1,-5
5,7,-3
1,10,-3
-3,13,0
-9,15,2
-18,16,3
-28,15,7
-42,19,9
-51,18,9
-59,19,11
-62,19,9
-59,17,8
-55,16,6
-43,15,4
-32,13,5
-22,11,6
-8,5,10
4,1,8
18,0,11
31,-1,13
44,-6,15
56,-6,16
65,-5,20
72,-1,24
77,8,30
85,13,39
84,23,43
88,34,53
85,41,61
87,53,66
83,65,71
80,75,78
78,89,87
75,97,91
66,107,93
63,116,96
59,118,101
58,123,101
52,126,100
49,129,102
45,138,98
39,147,98
32,151,97
21,158,93
14,168,97
2,181,95
-6,191,93
-16,201,93
-19,212,89
-20,217,87
-23,222,83
-28,220,82
-27,221,78
-28,217,76
-29,212,73
-29,205,71
-34,196,70
-38,190,69
-41,188,66
-46,186,63
-48,183,67
-54,183,66
-56,183,67
-62,182,71
-61,179,74
-64,178,83
-65,174,88
-62,167,95
-62,161,98
-55,156,103
-47,153,110
-43,155,113
-36,150,122
-29,144,129
-23,142,132
-16,143,139
-11,144,147
-1,139,156
3,143,165
12,142,174
17,141,183
17,139,196
20,142,205
22,143,217
25,145,223
29,147,236
33,155,245
39,166,252
47,176,255
53,197,260
60,217,265
71,238,270
82,254,271
91,268,274
103,272,282
112,272,290
128,274,294
145,273,304
160,275,310
174,277,321
190,269,337
198,265,350
211,262,368
226,265,377
237,269,390
250,275,400
264,282,408
285,289,412
304,294,411
335,292,414
367,292,409
401,289,402
437,282,395
473,273,381
505,266,375
528,261,366
542,265,363
542,271,361
537,291,356
510,312,355
477,340,354
434,368,350
389,393,345
338,413,341
288,430,333
238,440,326
193,442,309
154,439,292
125,439,270
104,437,243
100,430,210
111,433,172
130,433,136
155,426,98
182,422,67
209,413,36
233,405,3
255,390,-24
269,376,-45
280,362,-63
286,344,-79
286,320,-82
284,296,-80
273,276,-74
258,254,-53
242,231,-17
234,208,11
226,191,25
224,174,23
206,149,12
185,123,0
156,92,-11
127,62,-25
95,33,-33
61,6,-34
23,-17,-41
-3,-40,-53
-27,-59,-68
-40,-69,-87
-39,-80,-107
-27,-79,-129
-6,-77,-154
20,-67,-181
55,-53,-206
87,-43,-233
119,-26,-254
147,-11,-269
164,1,-283
172,13,-291
170,18,-297
162,19,-300
145,20,-301
119,11,-299
92,-2,-290
60,-18,-282
32,-36,-278
-1,-54,-271
-26,-73,-266
-48,-95,-260
-67,-108,-259
-83,-114,-257
-91,-110,-262
-97,-107,-267
-99,-101,-270
-98,-94,-274
-106,-90,-278
-114,-83,-277
-123,-85,-280
-138,-90,-276
-157,-102,-274
-178,-120,-267
-202,-141,-262
-227,-169,-255
-250,-206,-251
-269,-234,-252
-289,-256,-255
-294,-275,-264
-301,-282,-271
-301,-279,-285
-294,-276,-299
-284,-263,-313
-283,-251,-326
-283,-242,-330
-289,-233,-339
-297,-227,-340
-310,-224,-340
-323,-224,-336
-343,-226,-334
-361,-228,-323
-375,-233,-319
-392,-235,-312
-403,-246,-308
-414,-255,-301
-418,-262,-295
-422,-274,-287
-426,-285,-291
-415,-293,-291
-408,-295,-295
-400,-291,-301
-392,-286,-304
-387,-282,-309
-389,-273,-314
-395,-268,-316
-406,-262,-315
-422,-257,-313
-444,-256,-309
-466,-253,-307
-488,-246,-308
-509,-245,-310
-533,-246,-314
-555,-244,-323
-575,-250,-327
-591,-264,-336
-603,-274,-349
-615,-290,-356
-621,-306,-369
-628,-328,-378
-630,-348,-386
-633,-361,-396
-633,-371,-398
-636,-380,-407
-641,-386,-411
-646,-391,-414
-652,-393,-413
-664,-395,-413
-680,-401,-411
-695,-401,-410
-713,-405,-408
-733,-414,-404
-752,-426,-402
-776,-437,-397
-793,-445,-386
-814,-454,-382
-828,-458,-373
-841,-463,-363
-849,-466,-352
-850,-467,-340
-848,-466,-331
-845,-460,-322
-837,-452,-315
-822,-448,-305
-811,-438,-293
-795,-437,-282
-783,-427,-273
-769,-429,-256
-758,-426,-241
-751,-419,-226
-746,-420,-206
-748,-418,-186
-753,-417,-165
-759,-417,-147
-769,-419,-126
-778,-426,-112
-788,-428,-96
-796,-437,-92
-794,-446,-86
-796,-454,-92
-788,-462,-97
-777,-464,-104
-758,-462,-118
-737,-457,-131
-713,-451,-147
-682,-444,-163
-646,-442,-178
-607,-447,-189
-563,-456,-203
-517,-465,-208
-481,-472,-210
-444,-480,-209
-412,-490,-203
-389,-494,-196
-372,-488,-191
-359,-483,-182
-356,-470,-172
-356,-453,-161
-365,-435,-151
-370,-414,-145
-376,-386,-139
-383,-357,-135
-386,-328,-131
-385,-301,-122
-381,-275,-117
-378,-258,-112
-369,-247,-104
-362,-246,-98
-352,-254,-87
-341,-270,-78
-333,-290,-67
-325,-312,-62
-317,-334,-48
-307,-354,-44
-292,-375,-36
-279,-395,-28
-261,-410,-21
-250,-422,-15
-233,-437,-3
-223,-444,0
-210,-453,11
-197,-454,22
-188,-455,30
-179,-448,32
-170,-442,41
-173,-440,48
-174,-435,50
-174,-434,49
-173,-441,48
-176,-445,49
-176,-458,48
-177,-465,46
-182,-466,45
-179,-469,44
-179,-472,38
-174,-473,39
-168,-466,38
-155,-457,36
-140,-442,34
-122,-425,31
-101,-400,33
-77,-371,36
-56,-342,45
-33,-319,52
-17,-296,64
-4,-274,76
7,-254,94
12,-238,111
13,-225,130
9,-214,143
1,-208,161
-4,-202,168
-13,-197,173
-21,-191,175
-25,-190,178
-27,-185,168
-27,-179,164
-17,-174,155
-6,-168,151
5,-153,140
16,-147,134
31,-134,126
43,-127,127
58,-119,127
70,-113,130
81,-105,135
95,-100,145
107,-93,159
117,-90,176
128,-81,193
138,-70,214
142,-59,231
151,-44,257
159,-26,276
167,-11,295
165,10,311
164,34,326
156,52,337
146,68,345
141,88,350
132,100,353
127,113,357
136,122,350
149,126,348
166,129,343
191,132,336
212,130,335
235,127,331
257,115,328
272,100,329
288,88,331
293,74,342
297,61,352
294,47,366
288,35,383
277,24,397
266,10,408
255,-6,417
244,-23,420
241,-45,421
234,-71,419
229,-106,414
230,-143,411
229,-178,401
233,-218,392
233,-248,381
232,-280,371
229,-310,361
222,-337,354
216,-366,355
208,-397,355
204,-429,353
199,-462,358
190,-491,361
186,-512,366
174,-531,377
150,-543,383
132,-552,392
107,-547,397
71,-536,400
29,-521,405
-12,-505,409
-65,-484,415
-111,-463,419
-166,-445,422
-215,-436,426
-262,-428,425
-304,-424,425
-341,-419,422
-365,-422,416
-379,-432,410
-390,-437,409
-388,-447,392
-380,-453,381
-364,-461,367
-336,-464,349
-307,-464,331
-266,-466,314
-223,-462,294
-180,-452,277
-140,-439,258
-98,-420,242
-61,-398,228
-23,-383,214
7,-359,208
32,-339,198
58,-322,193
79,-301,189
89,-287,186
98,-274,180
97,-265,174
87,-254,169
76,-252,165
67,-246,156
51,-236,150
39,-224,139
28,-209,127
17,-197,116
8,-182,104
-6,-173,94
-23,-160,82
-36,-154,80
-55,-155,78
-75,-152,75
-99,-154,76
-115,-156,73
-134,-164,76
-150,-169,77
-160,-174,75
-165,-180,79
-169,-183,82
-173,-188,85
-176,-187,87
-183,-186,88
-191,-172,87
-195,-161,89
-202,-152,85
-214,-145,83
-228,-137,82
-234,-135,79
-250,-131,81
-266,-128,75
-286,-125,74
-303,-121,70
-322,-118,60
-336,-114,54
-351,-113,42
-360,-110,31
-371,-108,17
-370,-109,5
-375,-107,-2
-379,-113,-11
-381,-115,-22
-379,-117,-31
-384,-118,-42
-383,-106,-52
-384,-93,-65
-385,-79,-75
-387,-70,-85
-386,-57,-100
-388,-49,-115
-381,-43,-129
-382,-38,-144
-380,-30,-156
-380,-23,-167
-378,-7,-182
-381,0,-194
-380,8,-203
-380,14,-215
-383,23,-226
-382,34,-234
-385,44,-243
-382,54,-248
-379,74,-256
-374,88,-262
-373,107,-267
-374,126,-271
-375,138,-268
-381,145,-269
-380,140,-263
-384,130,-258
-387,106,-256
-388,75,-255
-387,39,-251
-382,1,-253
-373,-29,-257
-369,-69,-261
-361,-103,-274
-350,-133,-282
-333,-163,-293
-313,-195,-304
-296,-218,-313
-281,-238,-330
-268,-257,-339
-256,-269,-351
-245,-275,-366
-235,-277,-381
-224,-273,-397
-216,-261,-414
-204,-255,-427
-189,-241,-444
-179,-222,-459
-163,-208,-473
-153,-191,-484
-142,-183,-492
-130,-168,-499
-119,-158,-498
-105,-144,-500
-89,-143,-496
-67,-145,-490
-46,-151,-487
-24,-161,-476
-4,-173,-466
15,-185,-451
40,-195,-438
60,-202,-427
84,-205,-415
107,-197,-402
130,-181,-386
156,-158,-373
176,-137,-362
196,-108,-347
216,-78,-332
226,-43,-316
234,-14,-304
237,17,-285
231,43,-270
222,67,-254
212,92,-239
200,117,-229
188,140,-223
170,164,-217
151,187,-215
127,211,-218
102,225,-218
70,247,-225
35,262,-225
2,287,-230
-29,311,-236
-64,326,-240
-89,344,-244
-112,352,-249
-128,351,-251
-139,347,-253
-148,334,-253
-153,321,-249
-150,301,-247
-139,281,-242
-124,267,-235
-98,251,-229
-68,238,-218
-32,231,-209
0,231,-195
31,235,-177
61,245,-157
93,254,-140
124,264,-116
152,277,-97
176,283,-76
198,284,-51
215,285,-32
221,285,-12
226,279,10
226,270,24
226,261,39
226,252,48
228,237,54
231,226,61
235,215,60
239,204,62
245,196,55
257,187,50
268,181,46
280,179,40
288,179,34
295,181,32
304,188,26
311,197,24
314,209,26
316,220,26
318,237,32
314,252,35
309,265,40
303,278,44
297,290,49
292,297,56
282,304,64
269,304,75
256,303,81
238,303,91
226,298,99
213,294,109
205,287,118
195,281,130
191,276,135
189,273,139
189,274,138
188,272,139
185,277,138
181,280,137
174,283,141
167,288,140
158,294,142
146,296,146
131,297,151
106,296,159
93,293,170
72,288,178
52,282,186
33,270,197
14,257,206
4,248,212
-14,232,221
-28,208,228
-40,176,230
-47,139,237
-55,97,238
-60,56,243
-61,8,246
-57,-36,252
-54,-74,256
-47,-109,261
-47,-137,275
-46,-157,284
-51,-176,297
-54,-190,312
-65,-200,324
-70,-218,338
-76,-232,354
-88,-242,371
-99,-251,390
-117,-256,404
-134,-260,416
-157,-264,427
-174,-270,440
-194,-274,449
-218,-275,454
-241,-279,454
-257,-281,458
-278,-282,455
-294,-286,455
-306,-288,449
-312,-292,442
-314,-288,437
-318,-285,428
-318,-283,424
-319,-283,417
-319,-283,410
-323,-288,407
-328,-297,402
-334,-302,398
-341,-316,398
-350,-326,393
-351,-343,387
-352,-360,380
-345,-377,369
-337,-395,363
-324,-419,353
-311,-436,341
-298,-450,333
-286,-457,318
-274,-465,306
-256,-468,298
-242,-464,286
-224,-451,277
-208,-431,269
-189,-411,263
-171,-390,256
-152,-365,255
-136,-342,249
-120,-319,251
-105,-302,255
-95,-284,260
-81,-277,265
-71,-267,272
-64,-256,277
-53,-251,284
-45,-241,289
-45,-232,294
-43,-224,290
-42,-219,285
-49,-206,272
-50,-200,258
-49,-194,243
-49,-184,224
-45,-179,208
-44,-172,189
-42,-163,168
-37,-158,154
-37,-155,144
-35,-154,132
-37,-148,124
-40,-148,116
-38,-148,114
-37,-153,117
-41,-151,117
-41,-152,122
-42,-158,128
-47,-153,136
-43,-154,141
-43,-150,147
-42,-148,150
-34,-145,156
-30,-136,156
-27,-130,161
-15,-120,165
-8,-113,164
-1,-104,161
6,-95,164
14,-87,169
25,-80,171
32,-73,172
39,-68,174
51,-69,177
58,-63,179
66,-62,181
71,-60,180
78,-57,183
87,-60,183
93,-58,180
97,-57,177
104,-56,175
104,-51,165
111,-51,157
112,-45,149
114,-40,136
115,-34,124
119,-31,113
123,-28,100
125,-24,87
131,-21,73
133,-25,65
140,-27,56
144,-29,47
151,-36,39
158,-37,40
165,-40,40
171,-41,37
178,-40,37
183,-42,42
190,-40,46
195,-37,53
196,-30,60
196,-29,65
193,-25,72
192,-24,85
187,-19,94
181,-17,103
175,-15,112
166,-14,110
158,-11,117
152,-9,118
141,-10,120
135,-10,119
131,-8,119
126,-10,115
121,-8,113
115,-9,113
110,-9,112
100,-8,116
94,-12,117
84,-10,119
75,-12,121
68,-11,130
61,-2,130
58,1,130
59,5,134
57,9,132
55,12,133
55,14,131
53,11,130
54,9,132
51,2,131
52,-5,127
51,-11,124
50,-16,125
50,-25,124
51,-30,118
53,-31,119
53,-37,116
54,-36,114
54,-35,115
56,-36,116
57,-36,117
56,-29,118
59,-27,119
62,-22,121
61,-16,118
61,-8,122
64,-5,121
63,0,117
62,3,111
67,5,108
63,8,100
64,6,93
63,4,88
61,4,79
61,-2,76
59,-6,73
61,-14,68
60,-16,64
61,-21,60
58,-19,57
59,-17,58
56,-17,57
54,-16,56
51,-12,59
49,-14,58
45,-13,60
41,-11,63
42,-11,66
44,-15,66
41,-13,60
46,-18,57
48,-24,54
49,-24,51
48,-29,47
49,-28,44
47,-33,41
45,-37,40
42,-38,35
39,-39,33
35,-42,34
30,-42,34
28,-49,26
23,-47,29
15,-53,29
13,-55,27
5,-55,29
2,-62,28
-8,-65,25
-8,-66,22
-13,-68,22
-19,-74,17
-24,-76,15
-26,-82,5
-26,-87,1
-26,-88,-3
-25,-92,-10
-29,-90,-12
-29,-85,-12
-31,-84,-19
-32,-72,-25
-36,-60,-24
-33,-57,-25
-35,-54,-24
-34,-51,-23
-30,-55,-24
-26,-60,-22
-24,-63,-19
-19,-70,-16
-12,-75,-12
-6,-80,-11
-5,-81,-6
0,-78,-1
7,-73,-2
8,-64,-4
16,-60,-5
22,-50,-8
23,-43,-9
24,-31,-12
25,-21,-11
26,-19,-17
31,-15,-18
32,-19,-20
34,-19,-18
31,-28,-19
32,-33,-21
34,-39,-20
33,-43,-18
33,-43,-19
33,-42,-16
37,-37,-12
39,-33,-18
42,-23,-18
46,-19,-17
50,-13,-18
54,-7,-22
57,-4,-23
58,0,-25
57,0,-31
57,-1,-35
55,1,-45
57,0,-52
52,2,-55
55,1,-63
53,4,-71
49,1,-78
49,7,-85
48,1,-90
45,0,-92
45,-4,-94
38,-6,-96
36,-12,-99
35,-14,-98
29,-19,-96
32,-27,-99
28,-32,-96
34,-40,-97
33,-41,-97
35,-45,-100
36,-46,-98
39,-44,-98
40,-39,-95
43,-23,-97
42,-14,-96
40,-9,-97
38,-6,-97
38,-11,-92
39,-17,-91
36,-22,-91
40,-28,-87
40,-39,-85
38,-46,-84
40,-41,-80
41,-46,-71
36,-54,-64
36,-56,-54
37,-62,-48
32,-65,-46
30,-67,-40
26,-70,-42
24,-72,-42
15,-77,-46
13,-78,-48
9,-80,-55
4,-80,-58
1,-81,-61
0,-81,-67
-4,-83,-68
-2,-85,-74
-3,-83,-75
-3,-78,-81
-3,-74,-80
-3,-71,-79
-2,-67,-79
-1,-63,-77
1,-58,-73
3,-55,-69
2,-54,-64
4,-57,-58
3,-54,-53
5,-58,-41
3,-59,-34
2,-60,-26
3,-64,-19
0,-64,-11
3,-57,-6
0,-58,0
-1,-51,7
-1,-48,13
-9,-42,16
-12,-40,23
-16,-39,28
-22,-35,34
-26,-32,41
-31,-33,42
-33,-32,39
-36,-30,46
-37,-26,49
-40,-27,50
-41,-19,55
-48,-6,60
-54,10,65
-57,31,69
-61,43,72
-65,51,76
-74,47,77
-74,37,80
-79,29,80
-79,24,81
-83,22,79
-88,23,78
-88,17,78
-89,12,79
-103,1,77
-110,-2,73
-115,-8,76
-125,-13,74
-131,-23,66
-137,-28,61
-137,-36,60
-136,-47,56
-134,-56,51
-131,-68,49
-128,-76,42
-126,-90,40
-115,-105,34
-113,-120,29
-105,-137,24
-103,-148,21
-103,-154,18
-103,-155,15
-101,-149,15
-103,-143,15
-106,-127,10
-105,-109,5
-104,-92,9
-102,-84,9
-100,-83,11
-96,-88,12
-90,-104,9
-83,-121,7
-77,-140,8
-72,-159,6
-68,-180,12
-66,-195,10
-64,-214,12
-67,-219,16
-66,-218,19
-69,-214,22
-70,-200,24
-75,-178,26
-83,-160,28
-91,-152,28
-104,-141,27
-119,-127,24
-135,-126,20
-152,-124,15
-168,-118,7
-179,-116,-1
-190,-124,-11
-199,-120,-23
-207,-126,-34
-215,-122,-44
-214,-116,-55
-221,-112,-58
-221,-110,-61
-224,-106,-62
-220,-103,-62
-217,-96,-66
-220,-95,-60
-216,-89,-55
-210,-90,-45
-211,-92,-38
-208,-93,-24
-206,-98,-15
-202,-104,-8
-200,-111,3
-193,-116,9
-184,-122,13
-180,-128,24
-176,-124,28
-168,-126,33
-160,-131,38
-151,-135,42
-141,-136,48
-133,-135,48
-129,-139,52
-121,-139,56
-113,-142,62
-107,-144,62
-97,-142,61
-90,-143,63
-83,-135,56
-75,-127,58
-66,-112,57
-57,-99,55
-49,-87,50
-40,-75,47
-32,-64,43
-24,-52,42
-20,-46,39
-12,-41,38
-6,-40,40
1,-38,40
7,-40,41
18,-39,42
26,-41,44
31,-43,47
38,-38,49
43,-34,50
50,-29,55
50,-24,59
55,-19,57
52,-15,59
55,-8,58
55,-5,58
54,-1,54
52,0,58
49,2,58
50,0,55
48,-2,56
45,-6,54
45,-12,51
47,-13,49
46,-14,44
46,-4,40
44,1,35
45,8,26
43,13,19
42,16,18
37,21,18
32,28,26
23,29,28
19,31,35
11,33,39
9,35,40
5,35,45
6,37,50
7,39,46
12,38,48
17,42,46
22,38,40
28,40,34
32,44,34
37,43,24
39,43,15
42,39,8
47,33,1
46,32,-5
44,26,-8
44,22,-14
41,22,-21
43,20,-26
44,17,-30
45,19,-28
46,18,-31
51,21,-32
55,20,-37
57,23,-41
61,22,-43
70,25,-48
65,45,-59
61,38,-50
66,27,-45
69,18,-44
71,9,-43
73,5,-43
78,-1,-43
79,-1,-44
85,-7,-46
86,-12,-47
84,-14,-48
82,-5,-49
74,-1,-50
69,16,-55
59,25,-60
48,34,-62
36,41,-64
24,43,-61
15,38,-60
8,39,-61
5,36,-62
3,33,-61
2,28,-65
1,29,-64
-2,24,-62
-4,22,-59
3,34,-65
7,48,-67
14,48,-63
21,47,-61
23,41,-55
22,39,-50
25,35,-42
18,30,-38
14,30,-33
9,32,-30
-2,26,-27
-8,23,-22
-14,21,-19
-24,22,-14
-30,19,-15
-33,15,-14
-41,7,-11
-48,2,-7
-51,-3,-4
-53,-6,-10
-56,-7,-12
-57,-5,-9
-57,-1,-7
-57,1,-6
-56,6,-3
-52,7,1
-45,7,-1
-46,14,-6
-37,17,-7
-33,22,-11
-29,18,-14
-23,21,-19
-20,23,-23
-16,22,-25
-13,24,-28
-10,27,-28
-8,29,-31
-1,31,-30
4,34,-30
10,32,-29
18,27,-29
30,23,-31
40,16,-27
52,10,-26
66,4,-26
74,1,-22
82,-6,-21
89,-11,-19
94,-17,-17
96,-16,-18
95,-17,-20
99,-20,-18
99,-18,-22
103,-13,-25
103,-19,-22
101,-18,-24
102,-24,-22
99,-25,-19
96,-29,-18
95,-33,-19
88,-34,-26
92,-33,-24
90,-27,-23
88,-25,-25
87,-25,-29
90,-22,-29
89,-26,-33
84,-17,-35
84,-14,-40
81,-6,-46
77,0,-50
70,6,-53
65,10,-54
59,16,-56
53,17,-56
42,18,-57
39,22,-58
31,20,-58
25,17,-56
16,20,-54
8,22,-53
0,21,-49
-10,24,-43
-16,21,-43
-22,26,-43
-25,27,-42
-30,31,-39
-36,37,-40
-38,34,-37
-43,38,-37
-47,38,-37
-50,35,-37
-51,35,-37
-52,35,-37
-49,31,-35
-54,31,-40
-48,25,-41
-49,21,-36
-50,16,-32
-54,14,-28
-53,11,-24
-55,7,-18
-55,4,-10
-56,4,-7
-58,0,-3
-58,-4,2
-60,-3,2
-59,-5,9
-60,-10,9
-62,-8,11
-60,-10,12
-60,-3,11
-60,-5,9
-59,-3,7
-56,0,2
-54,7,0
-52,10,-3
-49,17,-7
-52,23,-8
-52,27,-10
-49,31,-10
-52,32,-11
-53,31,-12
-53,27,-12
-51,24,-12
-53,25,-12
-47,21,-13
-45,15,-12
-47,12,-11
-45,9,-12
-46,3,-12
-42,0,-14
-38,3,-15
-36,5,-15
-34,5,-16
-31,2,-18
-27,4,-18
-23,4,-16
-20,1,-18
-20,-2,-18
-19,-6,-16
-19,-8,-16
-20,-11,-12
-21,-14,-8
-19,-15,-4
-20,-19,-3
-21,-15,0
-19,-14,3
-20,-11,1
-21,-13,-4
-21,-11,0
-21,-15,1
-21,-16,0
-24,-21,2
-28,-27,6
-28,-31,5
-31,-35,6
-28,-37,7
-27,-35,11
-30,-37,9
-27,-36,11
-21,-37,9
-11,-37,7
0,-42,9
14,-47,5
24,-53,5
34,-57,8
50,-61,9
59,-65,9
61,-73,9
62,-76,12
58,-79,13
52,-78,12
43,-80,9
37,-78,7
32,-77,4
29,-76,-3
27,-73,-9
24,-72,-15
26,-70,-22
25,-72,-25
25,-70,-29
24,-67,-31
24,-68,-35
21,-64,-29
22,-59,-33
23,-56,-31
23,-53,-30
24,-46,-26
23,-36,-21
24,-35,-16
21,-29,-13
16,-25,-8
14,-23,-7
9,-19,-4
2,-19,-1
-2,-17,-1
-6,-16,1
-11,-18,2
-14,-18,1
-18,-17,0
-22,-23,0
-25,-21,-8
-30,-21,-7
-34,-25,-9
-35,-22,-10
-37,-22,-10
-42,-23,-12
-41,-22,-8
-38,-21,-6
-37,-22,-1
-35,-18,4
-37,-15,5
-34,-13,9
-32,-10,9
-35,-7,12
-34,-5,16
-40,-2,22
-45,-1,22
-48,1,22
-50,4,23
-54,6,22
-54,7,26
-55,6,25
-55,9,28
-55,11,24
-51,6,27
-51,7,29
-46,6,31
-44,5,30
-37,0,29
-33,0,29
-32,0,28
-32,0,32
-30,0,31
-27,-3,34
-32,-1,32
-32,0,34
-33,0,34
-33,-1,34
-32,-2,35
-33,-5,33
-33,-4,34
-31,-2,35
-31,-2,33
-30,-7,35
-32,-3,35
-33,-2,33
-30,-2,33
-33,-8,31
-33,-6,30
-34,-10,28
-34,-11,29
-34,-9,25
-34,-6,23
-35,-7,19
-39,-3,20
-35,-2,17
-39,3,14
-39,6,13
-42,9,13
-39,11,15
-43,15,14
-45,15,20
-47,15,18
-49,12,27
-54,15,29
-56,17,33
-57,16,34
-59,14,39
-56,22,38
-53,23,42
-50,25,38
-46,25,42
-46,27,40
-42,24,43
-39,21,49
-43,21,52
-47,19,56
-55,19,57
-59,19,60
-65,19,61
-71,17,62
-76,19,61
-81,19,59
-85,15,59
-89,10,59
-93,13,57
-93,8,57
-98,9,57
-98,4,56
-103,0,57
-104,-2,61
-107,-2,57
-111,-3,60
-111,-6,60
-112,-1,59
-113,0,62
-107,2,60
-113,6,58
-112,11,56
-117,12,62
-119,10,58
-123,11,58
-126,9,55
-123,10,54
-126,6,51
-130,6,49
-128,4,45
-124,3,43
-123,4,37
-120,3,35
-115,0,33
-114,-3,35
-114,-5,35
-108,-5,36
-112,-2,39
-111,-3,42
-109,-3,42
-113,2,43
-110,2,48
-108,2,47
-111,4,46
-113,1,51
-116,1,51
-116,0,52
-118,-2,50
-121,-4,48
-117,-7,48
-117,-9,43
-117,-9,42
-117,-7,39
-116,-5,38
-113,-6,38
-116,-2,36
-112,0,35
-110,7,37
-109,8,41
-104,11,39
-102,13,41
-98,15,44
-93,17,45
-91,18,48
-86,18,51
-83,17,53
-84,17,55
-80,14,59
-79,16,62
-76,18,64
-76,17,68
-73,17,68
-69,13,72
-67,18,70
-65,18,70
-59,20,71
-58,21,71
-53,27,69
-54,29,67
-50,31,66
-48,32,61
-48,38,60
-44,34,62
-43,33,59
-39,34,57
-37,32,58
-37,30,54
-31,27,53
-24,21,55
-19,20,51
-14,13,52
-19,12,49
-21,15,56
-22,10,55
-29,10,54
-35,10,53
-34,8,55
-35,7,53
-36,6,52
-33,5,49
-28,4,47
-27,1,47
-26,-1,48
-29,-2,51
-31,-5,51
-35,-4,53
-42,-2,54
-49,-3,52
-56,-5,55
-63,-7,49
-67,-6,49
-70,-8,46
-75,-12,43
-79,-13,41
-82,-13,38
-82,-10,32
-78,-10,25
-73,-9,21
-65,-7,18
-62,-5,16
-52,-2,14
-46,5,12
-41,9,8
-32,16,12
-22,20,11
-14,22,13
-7,30,18
-9,34,18
-9,33,23
-10,35,27
-13,37,29
-17,36,30
-17,34,29
-22,36,27
-23,40,27
-27,37,22
-33,40,18
-36,44,14
-35,39,6
-35,41,5
-31,36,-1
-32,31,-4
-30,25,-6
-23,13,-7
-19,7,-8
-18,2,-9
-18,-5,-13
-17,-11,-9
-15,-17,-5
-15,-23,-10
-11,-27,-12
-13,-27,-11
-7,-26,-12
-5,-26,-14
-1,-25,-14
2,-18,-16
4,-11,-20
11,-7,-21
15,-1,-21
16,1,-24
19,6,-20
17,9,-20
16,10,-20
13,14,-16
8,17,-13
4,17,-8
-1,20,-4
-3,19,-2
-6,17,1
-5,18,3
-8,21,6
-6,21,7
-2,19,11
0,18,11
4,14,12
7,14,15
9,11,16
11,8,21
14,4,21
16,2,27
20,0,29
19,0,29
21,-2,35
18,-2,39
17,-6,42
15,-3,46
14,1,47
13,8,49
8,10,50
8,15,47
10,17,51
10,22,46
5,22,44
4,24,42
-1,21,41
-3,16,38
-9,13,36
-13,5,34
-16,1,33
-16,-3,31
-21,-9,27
-22,-10,28
-15,-14,23
-15,-21,21
-10,-27,22
-3,-26,22
-3,-28,27
-1,-29,28
0,-25,28
-4,-26,31
-5,-23,30
-7,-20,30
-13,-17,29
-14,-17,31
-11,-18,28
-13,-18,25
-14,-21,26
-12,-24,24
-12,-28,22
-9,-25,24
-6,-26,22
-3,-25,27
0,-26,28
4,-22,31
6,-18,32
8,-16,37
11,-13,41
12,-10,44
15,-4,44
18,-1,47
22,0,49
23,2,53
24,7,56
28,7,58
31,7,59
32,5,63
35,3,63
37,0,67
34,4,67
37,3,71
37,4,72
33,4,74
37,4,77
32,5,76
35,1,78
31,-2,77
28,-1,75
31,-6,71
28,-7,62
27,-9,60
24,-11,53
20,-8,47
19,-6,39
23,-6,33
19,-7,28
23,-5,24
27,-2,18
31,-2,17
34,0,14
36,-3,16
41,-1,13
42,0,14
46,0,15
49,0,17
47,5,20
50,5,24
49,9,22
47,13,22
46,17,18
44,19,25
44,23,20
44,25,20
46,30,21
47,31,18
50,27,21
53,26,22
52,26,16
54,22,17
55,21,15
61,19,17
61,21,16
62,22,17
63,22,14
62,22,14
59,22,17
57,24,16
52,21,18
48,24,18
41,24,18
38,23,19
31,24,20
26,23,19
24,23,17
24,25,15
24,23,10
20,26,4
18,27,1
19,27,-2
18,27,-5
16,30,-7
21,26,-12
17,29,-16
17,29,-21
19,29,-24
19,31,-28
23,30,-33
24,29,-34
28,29,-37
30,28,-46
36,26,-45
41,25,-44
44,29,-45
50,27,-47
55,28,-43
62,29,-42
66,30,-41
74,33,-39
82,34,-37
88,35,-35
100,40,-32
107,41,-31
116,46,-29
125,50,-28
127,54,-26
132,57,-25
132,60,-23
133,63,-22
136,62,-19
129,66,-14
127,68,-18
124,68,-15
119,69,-18
115,64,-20
112,61,-23
113,56,-25
110,55,-28
112,53,-33
111,47,-36
106,47,-41
107,41,-40
102,41,-45
96,40,-49
94,37,-55
87,39,-62
84,37,-67
83,41,-73
79,39,-79
80,39,-86
75,43,-93
73,45,-96
70,44,-107
69,48,-109
65,50,-114
68,50,-119
66,48,-121
63,46,-119
61,41,-120
60,37,-120
62,31,-118
62,25,-116
67,16,-118
72,11,-117
79,5,-116
83,1,-113
84,-4,-115
88,-4,-113
87,-1,-114
88,0,-111
86,5,-109
81,13,-107
76,16,-104
70,28,-102
68,33,-103
66,38,-99
65,46,-101
64,51,-100
64,61,-99
68,67,-98
71,71,-97
66,75,-97
68,76,-94
69,78,-97
70,82,-94
69,83,-92
71,85,-92
74,82,-90
74,81,-86
70,83,-83
69,82,-84
65,83,-81
62,88,-77
60,90,-74
52,92,-74
52,98,-77
52,96,-77
50,103,-75
50,102,-78
54,105,-82
61,100,-82
64,97,-84
75,95,-92
81,93,-93
92,88,-98
97,85,-101
103,83,-100
107,81,-100
107,81,-99
107,83,-94
104,82,-93
99,83,-92
93,79,-90
87,79,-87
87,79,-85
84,75,-92
85,71,-93
89,71,-96
94,64,-95
103,69,-97
108,71,-101
114,77,-102
115,88,-105
120,96,-107
118,110,-103
117,120,-107
113,133,-102
110,145,-103
111,153,-99
105,165,-96
100,177,-96
96,186,-96
96,192,-95
92,197,-94
88,205,-94
84,209,-100
91,213,-107
98,222,-110
107,231,-113
114,244,-119
127,263,-124
137,277,-121
149,298,-124
154,314,-123
154,332,-121
151,351,-114
139,366,-109
124,379,-98
108,392,-93
95,407,-89
85,424,-85
79,446,-85
77,464,-85
83,483,-86
96,499,-94
110,514,-99
121,530,-105
135,544,-109
152,562,-110
163,579,-107
170,599,-113
181,618,-111
188,640,-113
197,666,-108
202,687,-104
203,709,-100
203,732,-92
198,751,-80
194,771,-72
188,792,-64
182,812,-53
179,835,-43
171,855,-35
168,878,-23
171,900,-11
176,919,-8
184,939,-1
193,953,2
212,965,8
234,970,12
250,975,14
274,971,15
294,971,16
315,969,17
339,965,18
363,962,19
382,956,18
398,949,20
418,950,18
432,942,18
440,940,16
451,942,17
452,938,17
452,935,19
445,931,21
434,928,23
419,922,27
404,923,30
390,924,33
377,923,32
364,927,32
359,931,32
357,935,33
353,943,30
357,950,29
363,958,27
371,968,27
384,974,21
398,982,20
410,989,16
423,989,21
441,990,22
459,989,25
477,985,32
494,988,38
510,992,49
518,1000,59
523,1010,71
530,1021,83
538,1034,92
543,1054,98
549,1079,102
555,1103,106
566,1128,104
577,1154,105
599,1180,102
621,1201,89
646,1215,86
674,1232,75
700,1244,69
728,1252,61
753,1262,59
773,1274,50
795,1283,53
815,1298,50
838,1308,51
859,1320,46
876,1334,50
893,1355,48
906,1375,50
921,1395,51
932,1419,59
941,1444,54
949,1471,56
958,1493,57
970,1511,58
985,1528,57
1001,1540,53
1023,1544,54
1045,1554,45
1061,1555,39
1078,1554,31
1090,1552,26
1101,1546,22
1108,1543,15
1113,1535,8
1119,1525,2
1123,1515,-2
1127,1494,-9
1129,1468,-18
1128,1441,-21
1128,1411,-23
1129,1386,-27
1125,1360,-29
1119,1337,-33
1109,1312,-35
1099,1286,-35
1082,1260,-36
1062,1232,-40
1041,1204,-43
1022,1174,-43
1002,1150,-44
984,1131,-48
967,1116,-51
952,1104,-59
936,1097,-63
924,1088,-73
911,1078,-82
896,1066,-88
881,1052,-98
866,1027,-101
847,999,-108
836,965,-115
819,930,-121
808,891,-122
791,857,-131
788,821,-137
775,787,-144
766,756,-154
756,725,-157
740,694,-164
727,666,-170
711,637,-173
697,608,-175
682,579,-178
665,548,-181
652,512,-184
643,483,-187
630,455,-190
626,424,-197
618,396,-198
601,376,-210
588,355,-212
565,339,-223
549,322,-231
525,304,-239
501,286,-247
476,267,-255
454,243,-259
435,226,-269
417,206,-273
403,186,-282
393,168,-292
389,153,-305
384,144,-319
389,137,-328
392,134,-343
393,131,-350
398,127,-357
399,123,-364
398,113,-372
401,100,-374
399,82,-377
403,63,-383
404,43,-385
404,19,-385
408,-5,-388
411,-28,-391
415,-51,-391
423,-69,-390
429,-90,-393
436,-110,-388
438,-121,-385
440,-131,-380
449,-144,-377
454,-157,-366
457,-171,-361
465,-190,-355
468,-210,-348
474,-235,-335
470,-258,-328
471,-290,-317
467,-321,-305
464,-351,-295
462,-379,-285
456,-407,-275
452,-433,-260
447,-450,-253
444,-464,-248
446,-464,-238
451,-465,-236
461,-463,-229
474,-457,-225
491,-450,-224
506,-441,-223
522,-429,-222
533,-416,-215
540,-410,-206
549,-405,-196
550,-402,-186
546,-397,-175
538,-393,-164
527,-385,-145
515,-383,-127
502,-382,-112
493,-382,-94
486,-384,-75
478,-388,-54
475,-386,-38
472,-375,-17
465,-365,1
466,-353,20
465,-343,37
457,-335,54
451,-329,69
442,-330,84
435,-335,103
424,-338,119
412,-337,133
398,-342,151
384,-346,171
372,-351,185
358,-359,196
345,-366,205
331,-370,214
321,-375,219
310,-377,219
304,-382,222
297,-383,222
293,-389,226
283,-389,229
273,-392,232
266,-389,235
266,-391,241
266,-387,239
264,-385,246
264,-387,251
267,-390,256
277,-392,266
281,-393,275
286,-399,281
282,-402,299
270,-398,313
249,-398,327
228,-405,344
208,-407,353
192,-417,365
172,-420,378
157,-427,392
138,-429,406
125,-432,416
117,-439,431
110,-444,447
100,-455,463
95,-464,476
84,-467,491
70,-470,504
53,-464,512
40,-466,521
18,-467,526
4,-463,532
-6,-458,536
-16,-455,536
-14,-449,535
-4,-439,532
16,-420,535
34,-391,537
54,-360,539
69,-325,546
79,-292,550
91,-265,560
97,-250,572
100,-235,582
98,-226,593
92,-213,604
87,-205,614
81,-202,625
75,-206,631
61,-215,637
50,-229,645
32,-242,648
12,-261,654
-8,-277,654
-25,-300,654
-41,-319,652
-53,-338,644
-71,-354,637
-77,-365,627
-82,-367,619
-77,-355,607
-65,-335,589
-49,-306,577
-24,-269,565
2,-235,560
28,-196,553
51,-163,549
72,-133,544
86,-106,549
92,-88,556
94,-78,558
86,-68,563
78,-61,569
64,-60,571
48,-59,570
33,-54,567
21,-56,562
4,-57,554
-6,-53,548
-16,-52,536
-29,-51,525
-31,-51,508
-37,-45,488
-43,-37,475
-48,-25,456
-50,-13,441
-54,-4,425
-62,3,418
-63,13,398
-69,22,384
-69,23,374
-66,23,362
-65,22,352
-56,11,342
-49,4,334
-38,-2,327
-26,-7,318
-15,-11,310
-8,-18,300
0,-19,290
5,-24,279
13,-28,271
13,-32,254
17,-32,243
17,-32,231
16,-39,217
17,-40,205
19,-45,193
21,-48,179
19,-52,169
27,-59,159
29,-64,142
34,-70,130
41,-77,120
47,-91,110
52,-98,103
55,-106,94
53,-107,88
48,-111,83
43,-114,75
37,-117,66
35,-125,58
27,-128,46
24,-127,40
19,-124,25
15,-112,17
16,-98,4
24,-81,-7
33,-62,-20
41,-44,-27
58,-28,-40
68,-14,-46
80,-2,-54
87,10,-59
86,22,-60
88,32,-63
88,42,-69
88,50,-74
89,58,-80
81,65,-82
76,73,-89
70,81,-97
70,88,-108
74,97,-122
80,110,-137
82,124,-153
88,138,-171
92,152,-189
97,163,-205
99,174,-224
107,184,-236
106,193,-244
108,193,-252
104,195,-264
105,197,-272
112,196,-279
117,196,-287
130,203,-293
145,211,-301
165,216,-307
187,221,-309
210,227,-317
235,234,-324
254,238,-332
276,238,-339
299,239,-351
332,239,-361
358,241,-375
388,249,-392
422,250,-406
457,263,-425
496,284,-450
530,299,-467
565,317,-487
597,338,-497
630,356,-506
663,373,-515
701,389,-520
745,410,-527
795,433,-534
846,462,-541
896,493,-544
945,518,-545
987,550,-537
1026,572,-532
1065,594,-517
1106,608,-502
1141,620,-485
1176,629,-467
1213,637,-443
1253,647,-423
1295,657,-399
1346,665,-372
1401,666,-340
1459,668,-304
1526,670,-273
1605,667,-230
1695,662,-193
1801,655,-147
1924,653,-98
2061,645,-35
2207,642,35
2358,638,108
2501,640,191
2637,631,280
2757,623,369
2867,619,463
2958,612,553
3041,606,641
3120,603,725
3193,601,801
3271,595,876
3352,583,944
3431,567,1007
3517,547,1060
3608,518,1119
3705,485,1170
3796,451,1222
3889,415,1266
3980,385,1306
4058,356,1342
4117,344,1374
4162,343,1399
4195,346,1417
4210,355,1435
4214,364,1457
4209,368,1479
4194,362,1505
4175,345,1532
4150,322,1553
4116,294,1567
4077,261,1585
4029,221,1596
3971,172,1608
3904,121,1613
3831,68,1614
3751,18,1612
3669,-36,1608
3586,-87,1598
3496,-134,1580
3404,-172,1565
3307,-204,1541
3208,-232,1514
3105,-261,1483
3002,-289,1446
2890,-316,1403
2772,-346,1358
2651,-369,1307
2531,-388,1248
2410,-404,1184
2293,-420,1119
2173,-419,1052
2056,-403,973
1945,-375,888
1854,-345,796
1768,-309,702
1685,-279,608
1598,-260,522
1519,-252,438
1432,-256,359
1343,-277,292
1250,-304,227
1149,-335,164
1051,-367,105
951,-401,52
846,-436,3
744,-463,-41
644,-489,-84
554,-507,-120
475,-527,-159
410,-545,-189
360,-569,-214
319,-598,-238
290,-629,-260
261,-663,-271
235,-697,-284
208,-725,-291
182,-750,-296
153,-770,-301
120,-781,-303
86,-786,-312
54,-777,-320
21,-762,-331
-3,-741,-350
-26,-724,-370
-45,-707,-394
-57,-686,-423
-69,-670,-456
-68,-660,-488
-68,-654,-522
-66,-655,-555
-60,-660,-582
-56,-661,-610
-55,-660,-637
-61,-649,-662
-64,-641,-682
-78,-629,-699
-94,-621,-715
-117,-611,-727
-155,-600,-737
-190,-588,-751
-230,-581,-765
-265,-579,-779
-296,-577,-792
-322,-578,-804
-337,-578,-815
-344,-580,-824
-348,-575,-830
-348,-567,-837
-343,-550,-836
-341,-535,-832
-340,-513,-828
-338,-489,-826
-338,-463,-820
-339,-434,-819
-344,-406,-814
-363,-373,-819
-380,-342,-822
-400,-314,-828
-422,-282,-839
-447,-262,-858
-479,-238,-880
-508,-219,-900
-550,-202,-926
-593,-196,-942
-648,-186,-969
-698,-173,-998
-738,-164,-1034
-776,-160,-1069
-811,-160,-1103
-843,-167,-1141
-870,-177,-1183
-893,-189,-1225
-917,-195,-1277
-942,-201,-1324
-964,-200,-1371
-983,-202,-1417
-1001,-204,-1466
-1024,-201,-1508
-1044,-196,-1549
-1065,-194,-1583
-1086,-189,-1617
-1113,-181,-1644
-1143,-175,-1668
-1164,-168,-1688
-1184,-149,-1705
-1189,-132,-1722
-1187,-115,-1730
-1177,-94,-1732
-1159,-77,-1729
-1140,-62,-1716
-1126,-42,-1703
-1122,-17,-1681
-1128,0,-1655
-1131,11,-1630
-1136,22,-1597
-1137,25,-1571
-1122,30,-1544
-1089,24,-1530
-1047,16,-1521
-995,-4,-1518
-942,-41,-1521
-867,-84,-1533
-757,-156,-1546
-596,-269,-1566
-396,-393,-1578
-169,-511,-1589
39,-603,-1578
201,-672,-1544
293,-724,-1492
310,-743,-1419
255,-702,-1335
149,-617,-1250
20,-503,-1168
-135,-384,-1091
-315,-270,-1019
-506,-175,-958
-700,-99,-912
-877,-49,-881
-1032,-23,-861
-1161,-17,-853
-1262,-40,-857
-1331,-75,-872
-1381,-119,-895
-1419,-162,-929
-1451,-201,-965
-1478,-235,-1002
-1510,-250,-1045
-1536,-245,-1083
-1559,-224,-1125
-1579,-193,-1157
-1605,-155,-1192
-1635,-119,-1219
-1668,-91,-1238
-1700,-74,-1253
-1729,-72,-1271
-1761,-82,-1278
-1797,-104,-1281
-1826,-145,-1273
-1859,-186,-1259
-1892,-224,-1244
-1916,-262,-1216
-1937,-292,-1195
-1952,-314,-1164
-1961,-328,-1129
-1968,-335,-1096
-1980,-336,-1063
-1994,-323,-1028
-2005,-314,-996
-2015,-298,-968
-2027,-277,-935
-2036,-247,-899
-2040,-213,-865
-2036,-177,-830
-2032,-134,-798
-2023,-91,-761
-2012,-46,-728
-1996,-4,-699
-1973,32,-676
-1947,54,-661
-1917,72,-647
-1878,83,-643
-1841,92,-633
-1797,91,-620
-1746,84,-605
-1701,72,-586
-1654,57,-561
-1611,42,-525
-1564,23,-488
-1525,4,-444
-1489,-12,-399
-1456,-25,-358
-1425,-35,-314
-1392,-36,-272
-1367,-30,-231
-1349,-16,-192
-1336,4,-146
-1330,26,-97
-1330,50,-44
-1334,76,11
-1339,104,63
-1348,131,119
-1353,156,172
-1366,183,221
-1377,201,268
-1400,218,314
-1428,225,356
-1456,227,393
-1484,227,414
-1502,232,434
-1511,239,439
-1520,250,441
-1530,263,439
-1540,290,434
-1552,310,423
-1565,328,419
-1583,339,405
-1601,339,389
-1613,322,372
-1613,294,359
-1604,262,342
-1580,232,323
-1545,195,304
-1496,167,287
-1450,144,275
-1414,138,265
-1387,147,255
-1373,158,254
-1380,173,260
-1404,179,270
-1440,190,276
-1475,201,274
-1505,203,267
-1523,197,252
-1521,174,225
-1497,136,192
-1455,88,152
-1399,27,118
-1340,-36,95
-1269,-99,70
-1191,-145,52
-1113,-186,53
-1045,-217,73
-1008,-234,113
-1005,-238,176
-1024,-227,248
-1051,-216,314
-1077,-210,368
-1090,-212,409
-1084,-234,435
-1075,-268,443
-1052,-309,444
-1015,-345,435
-972,-385,413
-927,-426,395
-882,-464,373
-841,-489,347
-808,-498,330
-787,-493,314
-778,-474,304
-773,-446,301
-783,-408,295
-793,-372,295
-810,-345,298
-831,-325,296
-855,-323,300
-877,-329,308
-906,-347,316
-926,-368,322
-936,-387,317
-937,-428,311
-925,-485,303
-906,-568,299
-865,-681,306
-801,-813,323
-727,-968,345
-653,-1165,378
-590,-1382,417
-549,-1610,453
-533,-1822,480
-530,-1992,505
-548,-2130,506
-587,-2199,508
-643,-2192,494
-713,-2104,475
-774,-1954,452
-820,-1772,416
-847,-1575,373
-846,-1367,325
-831,-1154,268
-788,-953,206
-734,-756,136
-679,-568,72
-623,-393,8
-575,-229,-51
-536,-77,-113
-507,50,-168
-491,153,-217
-484,230,-255
-477,279,-284
-461,297,-296
-433,293,-292
-393,274,-274
-337,244,-243
-258,214,-211
-163,186,-165
-50,155,-120
71,125,-67
204,105,-16
338,91,26
469,88,63
597,92,101
713,104,131
818,124,164
903,152,199
962,191,229
1004,229,259
1027,266,287
1026,297,310
1011,330,329
973,368,344
928,401,356
868,437,362
800,459,369
724,481,370
649,497,373
568,507,371
484,517,376
403,529,375
321,543,371
239,566,353
166,588,336
99,617,317
40,643,295
-1,673,274
-31,719,254
-48,771,237
-52,827,233
-55,885,232
-53,934,242
-48,974,258
-44,1008,275
-35,1032,290
-20,1058,300
-7,1083,306
13,1111,302
38,1125,296
76,1140,283
127,1151,270
188,1172,260
256,1196,253
334,1220,244
415,1250,244
496,1277,250
571,1306,263
637,1348,276
693,1385,299
739,1423,318
770,1463,337
789,1497,362
806,1525,386
823,1556,419
846,1593,453
885,1622,494
934,1653,544
1004,1681,593
1084,1702,642
1173,1740,694
1275,1789,748
1390,1856,797
1508,1930,840
1620,2022,888
1727,2110,935
1837,2195,993
1937,2277,1060
2037,2345,1123
2137,2404,1202
2229,2457,1282
2313,2491,1353
2391,2516,1419
2466,2526,1466
2532,2523,1495
2599,2511,1512
2671,2484,1517
2743,2461,1529
2820,2439,1537
2896,2428,1545
2965,2424,1556
3033,2432,1562
3089,2447,1564
3128,2468,1561
3146,2495,1544
3144,2521,1511
3127,2539,1479
3104,2560,1447
3088,2570,1406
3078,2574,1366
3079,2574,1326
3090,2560,1283
3100,2545,1245
3101,2521,1202
3085,2503,1163
3048,2488,1117
2995,2474,1068
2930,2466,1009
2861,2457,944
2796,2449,872
2739,2451,791
2700,2461,707
2670,2476,622
2660,2494,527
2654,2509,422
2656,2524,317
2661,2528,203
2654,2523,81
2636,2492,-47
2607,2447,-183
2571,2375,-318
2523,2259,-445
2455,2127,-554
2394,1995,-660
2348,1883,-761
2323,1794,-848
2325,1730,-925
2364,1712,-1013
2450,1740,-1116
2554,1818,-1239
2673,1926,-1392
2790,2049,-1581
2894,2183,-1788
2958,2316,-2012
2977,2441,-2243
2954,2551,-2471
2875,2652,-2681
2744,2738,-2858
2555,2813,-2998
2321,2879,-3092
2075,2932,-3143
1822,2973,-3155
1576,3005,-3128
1352,3029,-3068
1154,3041,-2982
988,3035,-2872
844,3015,-2743
715,2990,-2609
622,2956,-2476
564,2912,-2358
536,2863,-2249
534,2815,-2155
563,2767,-2073
607,2720,-2002
653,2670,-1930
685,2613,-1854
692,2547,-1767
682,2462,-1670
648,2363,-1574
605,2252,-1475
555,2137,-1385
502,2020,-1299
452,1911,-1221
403,1799,-1148
357,1690,-1085
318,1585,-1030
296,1497,-986
301,1430,-959
326,1381,-941
356,1346,-928
392,1318,-921
421,1309,-920
448,1307,-925
467,1311,-932
474,1310,-936
470,1295,-936
459,1265,-934
440,1225,-930
414,1174,-918
383,1121,-897
354,1065,-870
322,1008,-830
281,950,-788
244,896,-737
212,836,-686
182,773,-633
154,721,-587
124,667,-546
99,622,-514
77,580,-485
60,545,-461
35,512,-437
9,484,-417
-28,456,-385
-62,432,-357
-90,405,-328
-109,392,-300
-111,375,-274
-114,366,-254
-106,359,-244
-93,347,-233
-84,339,-237
-77,335,-243
-70,330,-257
-63,327,-275
-68,323,-292
-82,325,-309
-105,325,-320
-136,323,-322
-165,323,-325
-195,321,-327
-224,311,-319
-247,299,-317
-270,291,-317
-281,277,-319
-287,262,-329
-284,256,-348
-278,239,-377
-265,227,-417
-259,215,-465
-249,202,-509
-248,187,-553
-256,173,-587
-282,153,-619
-318,131,-641
-357,109,-661
-388,84,-676
-428,64,-687
-461,46,-698
-492,35,-708
-521,22,-715
-555,11,-727
-589,2,-736
-623,-7,-761
-644,-22,-783
-643,-42,-822
-619,-54,-858
-578,-72,-895
-537,-89,-924
-496,-109,-952
-459,-129,-977
-429,-153,-999
-414,-171,-1021
-415,-186,-1041
-431,-198,-1061
-457,-202,-1080
-483,-197,-1101
-507,-185,-1133
-525,-175,-1164
-541,-163,-1198
-553,-155,-1239
-562,-167,-1282
-558,-186,-1318
-551,-212,-1349
-550,-245,-1378
-547,-278,-1405
-543,-313,-1433
-541,-346,-1465
-532,-369,-1496
-522,-382,-1529
-512,-390,-1548
-503,-395,-1562
-498,-400,-1564
-507,-402,-1555
-524,-406,-1541
-551,-411,-1522
-578,-418,-1505
-607,-424,-1497
-626,-438,-1491
-649,-453,-1500
-669,-477,-1525
-676,-501,-1559
-681,-524,-1606
-676,-549,-1652
-665,-571,-1695
-651,-581,-1730
-632,-589,-1756
-614,-598,-1772
-599,-604,-1779
-580,-606,-1780
-557,-603,-1785
-524,-601,-1789
-487,-590,-1795
-455,-576,-1797
-427,-567,-1796
-399,-554,-1787
-371,-544,-1771
-342,-536,-1748
-314,-532,-1721
-286,-529,-1692
-262,-531,-1661
-238,-530,-1634
-213,-535,-1603
-191,-543,-1580
-175,-536,-1563
-156,-533,-1543
-140,-519,-1532
-128,-498,-1516
-114,-472,-1498
-102,-444,-1478
-91,-410,-1459
-84,-380,-1432
-87,-350,-1399
-95,-328,-1356
-104,-309,-1310
-104,-295,-1268
-103,-287,-1225
-105,-287,-1181
-111,-285,-1144
-109,-291,-1115
-108,-292,-1094
-98,-301,-1081
-92,-304,-1066
-95,-295,-1045
-104,-277,-1018
-118,-252,-984
-129,-226,-935
-153,-200,-881
-183,-182,-819
-215,-173,-752
-246,-175,-694
-267,-188,-645
-274,-208,-604
-271,-234,-582
-267,-259,-561
-256,-277,-552
-251,-286,-536
-249,-297,-523
-246,-306,-511
-242,-316,-501
-233,-324,-489
-223,-330,-473
-207,-329,-457
-194,-334,-438
-176,-341,-419
-153,-346,-398
-136,-342,-374
-122,-336,-351
-123,-326,-321
-123,-313,-293
-123,-291,-271
-121,-256,-249
-115,-215,-229
-101,-174,-214
-79,-129,-196
-63,-82,-178
-49,-43,-155
-36,-11,-132
-16,10,-108
13,18,-83
40,17,-54
73,-1,-27
106,-34,3
126,-68,21
137,-97,23
142,-114,9
143,-113,-12
137,-89,-45
132,-39,-79
124,19,-116
122,91,-150
120,170,-177
127,245,-199
141,312,-214
162,362,-218
178,392,-211
183,399,-197
177,388,-176
160,370,-155
135,350,-129
101,322,-104
64,287,-79
30,244,-55
-7,204,-31
-40,161,-14
-72,126,-3
-92,99,4
-104,79,4
-102,61,0
-99,41,-2
-100,28,2
-110,33,4
-129,55,4
-140,78,4
-149,102,-3
-152,116,-9
-144,119,-19
-115,138,-27
-84,143,-31
-41,144,-34
-1,149,-38
34,135,-42
70,111,-35
109,83,-28
135,67,-23
155,72,-20
159,102,-20
145,141,-16
122,175,-20
96,192,-30
70,202,-45
50,203,-61
31,190,-80
19,161,-99
15,118,-119
28,69,-147
57,25,-172
92,-13,-198
133,-43,-221
168,-69,-236
195,-88,-245
208,-101,-248
210,-105,-246
197,-110,-238
171,-115,-220
146,-131,-202
122,-145,-181
113,-152,-160
114,-168,-143
130,-191,-125
154,-210,-102
183,-228,-81
210,-231,-58
232,-227,-38
243,-209,-23
244,-190,-8
239,-164,-4
215,-132,-1
186,-104,-6
150,-73,-21
100,-41,-41
50,-25,-64
-6,-11,-92
-56,-14,-119
-99,-27,-147
-131,-44,-171
-161,-57,-195
-177,-68,-221
-185,-73,-242
-186,-77,-259
-180,-80,-272
-179,-77,-280
-173,-83,-280
-164,-82,-277
-148,-79,-274
-128,-77,-266
-108,-67,-258
-93,-63,-244
-84,-62,-225
-82,-64,-197
-89,-72,-168
-96,-95,-135
-103,-124,-104
-95,-139,-80
-84,-162,-63
-57,-170,-53
-23,-183,-43
14,-197,-31
49,-203,-29
70,-206,-22
81,-206,-15
85,-201,-13
73,-199,-7
41,-195,5
-1,-194,8
-45,-193,8
-98,-185,3
-146,-185,-5
-194,-176,-10
-245,-168,-20
-290,-162,-22
-337,-150,-33
-374,-139,-42
-412,-132,-51
-440,-113,-60
-461,-111,-66
-481,-102,-69
-492,-95,-71
-498,-96,-66
-507,-84,-51
-507,-80,-35
-496,-81,-16
-467,-72,2
-437,-76,17
-402,-67,43
-378,-50,67
-346,-51,92
-316,-35,123
-276,-34,155
-229,-21,179
-171,-2,207
-121,18,236
-74,54,264
-34,90,297
3,128,323
39,150,347
73,157,367
109,157,384
146,163,399
172,180,409
192,197,415
218,210,424
262,224,419
313,245,406
354,283,393
384,331,374
401,370,354
408,384,332
408,363,313
393,323,290
370,273,266
340,216,237
304,158,215
260,94,195
221,25,175
187,-31,152
163,-63,127
155,-41,100
152,3,73
164,49,47
178,77,24
201,96,0
221,116,-23
238,132,-44
238,141,-67
233,137,-87
219,120,-97
193,87,-102
160,53,-106
137,14,-111
126,-20,-113
123,-55,-119
130,-85,-124
150,-110,-129
175,-129,-132
205,-138,-133
235,-147,-134
262,-151,-132
286,-157,-123
309,-156,-119
326,-152,-114
342,-145,-110
356,-139,-105
367,-136,-102
371,-133,-96
375,-130,-92
373,-130,-89
364,-126,-83
355,-124,-86
339,-125,-89
321,-121,-94
283,-117,-102
252,-118,-111
205,-113,-122
161,-106,-134
111,-95,-147
63,-84,-169
17,-73,-187
-27,-64,-206
-66,-51,-227
-106,-42,-247
-135,-30,-262
-165,-26,-277
-191,-21,-281
-217,-14,-283
-235,-11,-282
-250,-9,-274
-255,-7,-265
-257,-4,-259
-240,-4,-249
-213,-5,-238
-186,-6,-223
-150,-7,-205
-111,-14,-189
-67,-21,-169
-24,-32,-145
19,-41,-128
57,-55,-108
89,-68,-83
111,-87,-61
127,-105,-41
133,-126,-17
138,-144,7
140,-165,34
135,-182,60
130,-198,78
123,-216,101
117,-223,125
114,-229,141
107,-220,157
111,-215,175
114,-199,191
119,-183,199
125,-166,210
132,-147,216
136,-129,223
139,-116,230
138,-102,234
136,-89,236
136,-82,237
138,-74,239
135,-67,240
132,-62,236
129,-58,232
125,-52,223
120,-49,215
111,-50,204
107,-51,193
99,-55,182
84,-61,174
64,-62,162
46,-68,152
28,-69,140
10,-69,135
-9,-72,127
-32,-67,118
-51,-62,112
-70,-54,105
-88,-50,103
-102,-39,97
-112,-30,92
-117,-28,90
-118,-20,79
-118,-13,77
-112,-13,70
-102,-10,66
-85,-12,60
-65,-16,55
-47,-15,48
-19,-20,45
1,-22,38
23,-25,34
41,-29,30
57,-25,24
67,-24,18
73,-21,12
70,-16,3
66,-10,-4
55,-6,-12
43,-1,-21
35,7,-31
23,12,-42
15,16,-51
9,24,-64
7,22,-77
-4,26,-85
-4,24,-96
-7,23,-105
-7,20,-115
-6,15,-126
-2,7,-129
2,0,-142
9,-8,-147
15,-16,-157
26,-24,-163
37,-34,-170
46,-35,-174
58,-42,-184
70,-44,-189
86,-48,-191
97,-51,-195
102,-58,-196
112,-60,-201
118,-65,-201
125,-63,-198
135,-69,-198
151,-70,-203
177,-77,-203
207,-83,-203
245,-90,-207
289,-96,-213
337,-104,-222
386,-104,-228
428,-105,-235
466,-103,-243
494,-98,-250
510,-84,-255
518,-71,-262
516,-59,-261
511,-47,-262
496,-35,-259
480,-22,-255
460,-8,-248
437,6,-241
411,17,-227
385,28,-209
357,37,-195
333,42,-170
312,43,-150
293,41,-126
280,34,-105
257,29,-85
236,28,-60
212,23,-39
181,24,-13
153,13,13
117,-10,41
81,-26,75
45,-47,101
12,-64,132
-11,-84,147
-36,-95,156
-55,-111,166
-69,-127,174
-78,-122,172
-90,-119,171
-101,-119,165
-111,-105,153
-115,-89,137
-119,-72,121
-128,-48,105
-129,-31,92
-132,-9,77
-134,8,60
-144,31,49
-147,40,44
-154,50,34
-153,58,31
-157,62,26
-158,64,29
-158,56,35
-162,57,39
-157,41,47
-155,35,51
-154,20,57
-150,5,61
-145,-11,62
-140,-24,63
-136,-41,62
-128,-52,58
-125,-66,52
-113,-68,47
-109,-73,45
-102,-74,34
-97,-72,23
-91,-62,14
-85,-55,3
-79,-45,-2
-70,-33,-9
-59,-29,-15
-52,-8,-19
-47,16,-21
-46,19,-17
-38,26,-8
-35,25,-7
-27,33,1
-21,29,6
-16,33,7
-4,30,11
4,29,11
13,28,14
20,25,10
29,26,12
32,28,8
26,29,7
16,28,7
4,23,9
-12,26,8
-27,20,9
-43,16,10
-53,14,12
-64,13,13
-74,8,15
-77,12,18
-78,11,23
-77,15,28
-77,19,28
-66,20,29
-56,24,29
-45,26,29
-30,31,29
-14,34,28
-2,36,25
10,32,25
27,29,22
39,26,15
45,19,14
49,22,8
51,18,2
51,15,-3
52,16,-7
50,11,-8
43,10,-15
45,7,-17
39,5,-21
38,6,-26
37,1,-25
32,-3,-30
28,-4,-34
25,-4,-39
22,-2,-38
18,-3,-41
15,2,-47
16,2,-46
19,6,-43
21,10,-44
26,16,-45
31,21,-45
35,23,-46
41,29,-50
47,34,-51
52,36,-56
57,40,-59
59,45,-64
63,52,-67
64,52,-74
64,49,-75
61,51,-84
58,51,-88
54,48,-84
52,44,-83
47,45,-83
43,42,-81
37,38,-79
34,34,-71
30,32,-70
28,28,-63
23,24,-60
22,24,-53
21,20,-48
20,17,-41
21,19,-33
21,20,-29
21,20,-26
26,21,-19
26,20,-14
33,20,-8
36,23,-3
42,22,-1
46,19,1
49,18,0
53,21,-4
57,23,-2
59,24,-3
62,19,-5
68,18,-6
65,19,-4
67,18,-6
69,18,-7
69,14,-7
67,16,-6
72,15,-7
68,12,-11
69,12,-10
73,11,-9
75,12,-9
74,12,-13
73,13,-14
71,15,-14
69,18,-14
64,18,-11
60,20,-10
53,19,-5
47,20,-4
39,25,-3
38,28,-5
39,32,-9
38,34,-17
43,32,-19
47,31,-22
50,28,-18
49,22,-15
47,20,-14
47,15,-10
44,14,-9
41,11,-8
40,11,-13
38,12,-17
35,14,-21
33,14,-23
28,12,-26
23,10,-27
19,10,-30
11,9,-33
12,8,-34
7,3,-32
1,0,-27
-3,-2,-21
-6,-2,-19
-10,-4,-11
-9,-5,-9
-11,-5,-6
-15,-3,-1
-13,-2,0
-14,-1,0
-20,0,-1
-20,1,2
-19,0,4
-16,-2,8
-14,-1,10
-12,1,10
-13,0,13
-10,0,15
-3,0,13
-3,2,13
2,0,11
1,1,8
2,4,6
1,6,8
2,5,9
3,4,11
6,4,12
5,2,13
3,-1,14
5,-3,15
8,-5,16
10,-5,14
15,0,12
19,1,15
20,4,12
23,5,12
25,7,10
26,8,11
28,8,9
25,8,10
25,4,7
27,7,6
25,8,3
24,6,0
23,7,0
22,5,-3
23,5,-6
20,3,-8
21,4,-4
18,1,-4
17,-2,-4
16,-3,-2
14,-3,-3
14,-4,-3
13,-3,-4
12,-2,-3
9,-3,-5
4,0,-5
4,-1,-6
-1,0,-5
-2,-1,-4
0,-2,-5
-6,-1,-8
-6,-3,-4
-9,2,-6
-9,0,-4
-9,0,-5
-7,2,-3
-11,3,-3
-8,2,-2
-8,4,-2
-8,0,0
-8,6,-1
-8,0,1
-10,1,3
-10,7,2
-9,-1,0
-8,-2,4
-5,-5,4
-7,-7,3
-5,-3,6
-4,-5,7
-5,-7,5
-3,-4,6
0,-2,5
-1,0,5
0,-1,5
3,-3,5
4,-4,5
8,-2,7
6,-2,7
9,-3,4
8,-2,6
9,0,3
7,-1,6
10,0,6
9,-1,6
7,-2,3
8,-3,2
8,-3,0
8,-4,3
10,-3,3
8,-3,5
6,-5,4
9,-4,3
9,-6,3
6,-3,1
10,-2,3
9,-2,1
6,-4,4
6,0,5
1,-4,4
2,-3,4
-2,0,3
-1,0,3
-4,-2,2
-11,-1,3
-14,0,7
-13,2,5
-12,-1,9
-9,2,7
-8,-1,7
-5,0,6
-6,1,6
-3,-1,4
1,-1,3
1,-6,6
5,-5,3
5,-7,1
8,-6,0
8,-7,-4
8,-6,-2
6,-7,-5
3,-5,-6
1,-4,-6
-5,-2,-6
-8,-2,1
-13,0,2
-20,-1,9
-24,1,12
-23,2,14
-22,8,15
-14,11,18
-7,11,15
0,12,19
7,9,15
11,10,12
18,8,12
17,4,5
21,2,4
15,-3,-1
13,-7,-3
12,-9,-6
7,-12,-10
4,-12,-6
0,-11,-6
-3,-11,-3
-5,-7,-2
-7,-8,-3
-7,-7,3
-8,-5,5
-8,-3,3
-11,-4,7
-12,-1,8
-12,0,9
-14,0,13
-15,-1,13
-16,2,12
-12,-2,13
-13,-2,10
-10,-4,10
-7,-8,11
-7,-10,11
-3,-11,7
-2,-11,5
0,-12,5
0,-10,4
3,-10,2
0,-12,2
2,-13,3
0,-14,2
-1,-11,2
-4,-9,2
-6,-7,1
-10,-5,5
-14,-4,3
-14,-4,5
-13,-3,6
-12,0,9
-14,-1,8
-10,-1,6
-8,0,7
-7,2,6
-5,3,0
-4,1,7
-2,1,3
-3,4,3
-2,0,0
-2,-3,2
-1,0,2
-7,1,3
-9,-3,1
-5,-4,3
-4,-4,2
-2,-4,2
-2,-1,4
1,-3,1
0,0,3
0,0,3
5,-3,4
5,-3,3
6,-3,2
8,-4,1
7,-5,0
7,-3,1
8,-2,0
6,-6,-2
9,-4,0
11,-3,0
8,-6,0
4,-5,-1
7,-6,0
4,-7,1
7,-9,0
0,-9,-2
1,-5,0
-2,-7,1
-3,-2,2
-4,-5,-1
-6,-2,-1
-3,-1,3
-6,-1,7
-5,2,6
-9,-1,9
-8,2,6
-9,1,7
-8,1,9
-6,0,5
-11,0,5
-9,0,5
-10,-2,5
-8,-2,4
-4,-3,0
-7,-2,0
-5,-3,2
-3,-2,0
-2,-3,2
0,-4,-2
2,-2,0
1,-2,1
3,-1,0
3,-4,2
4,-2,0
3,0,1
5,-1,2
2,-1,2
2,0,4
4,3,5
1,0,5
3,0,5
1,-2,6
4,-1,7
2,0,5
5,1,8
7,-1,6
6,-1,3
7,-1,3
7,-2,2
7,-1,0
6,-2,0
9,-4,1
6,-2,0
6,-2,2
6,-2,4
2,0,1
0,2,3
0,-1,4
-1,0,1
-1,-2,1
0,0,1
-1,-1,0
-1,-5,1
-2,-3,2
-2,-1,1
0,-3,0
0,-1,1
3,-1,1
3,1,-3
3,2,-3
4,6,-7
0,6,-8
-3,5,-9
-6,5,-3
-11,1,-3
-15,1,1
-19,0,3
-19,1,8
-15,2,7
-5,4,7
4,4,6
15,5,3
24,5,0
29,4,-1
36,1,-3
35,0,-5
33,-2,-6
31,-1,-7
20,-2,-7
20,-3,-8
11,-4,-7
3,-3,-6
0,-1,-2
-3,-3,-2
-8,0,1
-6,2,4
-2,2,4
-3,6,5
1,5,8
0,8,6
3,8,11
5,8,9
4,4,8
3,3,7
1,0,3
2,-3,2
3,-7,6
1,-8,0
0,-10,3
0,-13,3
-1,-12,1
0,-15,1
-1,-13,-3
1,-11,-2
0,-10,0
2,-7,-4
4,-7,-3
5,-1,-2
2,-1,-1
5,3,-3
0,0,-1
0,0,2
-6,1,1
-7,1,4
-7,1,5
-7,2,4
-8,3,6
-3,5,5
-1,2,4
0,5,2
6,4,2
10,0,2
9,-2,0
12,-4,0
8,-2,-1
6,-2,3
3,-2,0
2,-1,0
4,-1,3
2,0,3
3,0,5
0,-1,2
3,2,2
6,3,4
7,6,4
8,4,7
11,2,5
13,1,6
12,0,4
14,0,0
14,-4,0
16,-3,0
14,-6,0
12,-6,1
13,-7,-1
14,-10,0
12,-8,-1
12,-10,-1
9,-11,-4
8,-9,-2
6,-10,-2
3,-9,-1
2,-5,-4
-1,0,-1
-4,-1,-1
-7,4,0
-6,6,0
-10,4,-2
-9,7,0
-9,8,1
-11,4,4
-7,5,5
-9,4,4
-9,3,2
-7,1,4
-6,-1,3
-8,0,0
-6,1,-1
-2,0,5
-1,1,2
0,0,4
2,-3,1
0,0,4
0,-1,5
1,-1,2
2,-3,4
2,-3,5
2,-2,3
1,0,3
1,0,2
3,0,4
5,4,4
3,1,4
3,2,0
3,1,5
4,1,2
3,2,3
4,-2,4
0,1,2
0,1,4
0,2,7
0,4,2
0,0,3
-1,0,0
0,0,4
0,-2,0
0,-1,-1
-3,-3,-1
-2,-3,0
-3,-1,-1
0,-1,-1
0,0,0
0,0,0
0,1,-2
1,1,-1
0,2,-1
1,1,-2
0,1,0
4,1,-1
2,-1,0
6,-5,-4
7,-3,-4
7,-2,-5
8,-2,-6
5,0,-7
1,0,-7
-3,2,-8
-10,2,-3
-15,-3,-1
-16,0,4
-21,1,5
-24,0,8
-21,4,9
-16,6,9
-4,7,8
5,9,5
14,11,2
25,10,0
30,10,-4
38,10,-7
39,7,-11
41,6,-15
40,2,-15
37,1,-17
32,2,-20
30,5,-21
28,0,-20
22,0,-19
21,1,-18
17,-2,-10
14,-3,-10
12,0,-8
13,-3,-3
13,-2,0
8,0,1
7,0,4
4,-2,4
1,-1,2
2,-1,0
-1,-2,3
-1,-1,3
-4,-1,3
-3,-6,4
-5,-5,4
-5,-5,3
-4,-4,4
-6,-7,2
-2,-9,2
-3,-8,0
-2,-8,0
-4,-8,0
-4,-11,-1
-5,-8,-2
-5,-6,1
-8,-3,-1
-9,-2,1
-12,0,3
-12,-2,2
-14,-1,2
-15,1,4
-14,2,3
-11,3,2
-9,1,4
-8,4,1
-1,5,0
0,4,-1
6,2,-2
4,2,-4
7,1,-3
6,-2,-3
4,-2,-3
5,0,-5
3,1,-4
1,0,-3
0,-1,-2
2,-3,-2
0,1,-3
0,0,1
0,0,3
-1,1,3
4,1,4
4,2,5
5,4,2
3,2,-1
8,-1,0
8,0,0
6,0,-2
7,-3,0
8,-2,-5
7,-4,-3
9,-5,0
5,-4,0
6,-7,0
7,-5,0
2,-3,3
2,-5,0
4,-1,-1
1,-1,2
0,3,0
0,5,1
3,2,-1
3,5,0
1,5,2
-1,4,0
-1,2,0
-1,1,-2
-3,-2,0
-2,-2,-1
-3,-2,0
-5,-2,0
-5,-4,0
-6,-4,-1
-4,-5,1
-2,-3,3
-2,-4,0
0,-1,0
0,-1,-1
3,-1,0
5,0,-1
4,2,0
6,-1,-1
7,3,1
6,2,0
5,3,0
3,0,-1
6,2,1
5,-2,0
2,0,1
2,-1,2
3,0,2
2,0,1
0,0,0
3,0,0
3,0,0
0,-1,3
-1,-1,2
-4,-1,3
0,0,3
-3,-1,2
-3,-4,0
-4,-3,4
-6,-7,1
-5,-9,4
-5,-10,5
-4,-10,1
-2,-11,1
-1,-8,0
-1,-10,-4
-3,-6,-3
-3,-9,0
-3,-6,-2
-4,-5,-3
-3,-6,-5
-5,-2,-4
-3,-5,-4
-6,-4,-4
-3,-5,-2
-3,-4,-5
-3,-7,-3
-1,-4,-3
3,-5,-3
4,-2,-6
4,-1,-6
3,1,-6
1,4,-4
-4,5,-4
-4,6,-6
-8,3,0
-13,4,2
-11,6,1
-15,6,8
-15,7,8
-10,13,8
-3,12,5
8,12,1
14,12,3
21,13,0
26,10,-2
31,10,-2
31,9,-3
30,5,-4
27,4,-4
23,0,-2
18,-2,0
15,-2,0
11,-4,4
10,-4,1
10,-3,6
4,-6,4
8,-4,5
8,0,7
10,3,7
12,5,3
13,7,6
12,10,1
12,13,0
11,14,-4
8,15,-5
9,12,-5
4,14,-6
5,13,-4
4,11,-7
0,10,-5
2,5,-3
-1,6,-4
0,1,-1
-3,-2,-1
-1,-4,-1
-2,-6,-1
-3,-6,0
-1,-7,-2
0,-10,-1
0,-9,-3
-3,-10,-2
0,-10,-1
-1,-7,-4
-7,-7,1
-4,-5,-4
-5,-5,-3
-4,-6,0
-2,-8,0
-3,-1,0
-3,-1,-5
0,-3,0
3,-2,-4
4,0,-1
6,-1,0
3,-3,-3
7,-4,-1
5,-4,0
7,-3,-1
1,-4,-3
1,-6,0
0,-5,0
1,-6,2
0,-7,2
3,-7,2
5,-6,3
4,-5,4
4,-5,2
8,-4,2
10,-6,2
11,-5,1
10,-5,2
10,-4,-3
9,-6,2
6,-4,-1
9,-3,-3
9,-2,0
7,-4,-1
10,-5,2
9,-4,1
8,-4,-3
9,-4,0
11,-5,0
8,-6,0
2,-6,-3
6,-5,0
2,-6,-2
3,-4,2
2,-5,-1
1,-3,0
0,0,0
0,1,1
0,0,1
0,-3,1
-4,0,-1
0,-2,2
-1,-2,2
0,-3,4
-1,-5,2
0,-4,5
-1,-5,4
-2,-3,3
0,-3,2
0,-5,5
0,-3,1
1,-6,0
1,-1,1
1,-4,5
2,-4,3
0,1,2
2,-1,2
4,0,0
5,-1,2
4,-2,1
4,-1,2
4,-5,1
2,-1,0
4,-1,1
4,-1,4
5,0,0
5,-5,0
2,-1,1
5,-3,0
4,-6,0
4,-3,0
4,-7,0
2,-4,-2
1,-4,-1
-1,-1,-1
-1,-1,2
0,-3,2
0,-3,1
0,-3,4
0,-3,1
1,-2,0
2,-2,0
0,1,3
0,0,2
2,0,0
3,2,2
5,0,2
6,0,2
4,2,0
3,1,4
5,2,0
10,0,-2
8,-2,0
8,-4,0
9,-1,0
7,-2,1
11,-5,1
14,-4,-1
17,-5,0
16,-3,-3
12,0,-2
8,0,-4
2,0,-3
0,-1,-3
-5,-3,0
-12,-3,6
-14,-4,4
-12,-2,8
-7,-1,11
-2,-1,9
6,1,6
17,2,4
20,3,0
28,2,-3
27,0,-4
23,-2,-4
20,-5,-4
16,-6,-8
13,-7,-8
5,-5,-9
-1,-5,-7
-3,-3,-3
-11,-2,-6
-11,-2,1
-16,1,2
-14,-2,4
-15,1,7
-11,-2,7
-11,0,8
-10,-2,5
-8,-1,4
-5,-3,3
-5,-4,2
-3,-3,3
-4,-4,4
-1,0,0
0,-6,0
4,-5,3
5,0,5
6,1,2
9,4,-1
15,6,0
16,9,0
19,10,-1
21,10,-1
23,12,-1
26,11,-5
28,14,-5
28,15,-5
25,13,-2
21,13,-2
18,10,-2
12,6,-3
10,9,0
8,8,3
7,5,2
6,3,4
11,3,4
12,2,2
10,3,1
14,0,-1
17,-1,0
16,0,-2
18,0,-4
17,-1,1
13,-4,1
11,-3,1
9,-3,2
6,-4,1
5,-4,3
4,-4,2
5,-2,7
5,-4,4
4,-3,6
6,-2,4
8,-1,3
12,-1,3
11,-3,5
14,-3,2
14,-3,2
13,-5,2
14,-5,0
11,-7,-1
14,-10,-1
10,-8,-2
11,-9,-2
8,-9,-3
10,-11,-1
6,-7,-3
4,-10,0
5,-8,0
3,-10,3
4,-7,1
2,-4,1
0,-3,2
0,-4,4
-1,0,-1
0,-3,-2
0,2,-3
-3,2,-1
-4,2,-2
-5,0,0
-2,-1,0
-3,-2,0
-1,0,-1
0,-1,0
0,-2,0
3,-4,2
2,-8,0
2,-3,0
3,-4,0
3,-6,2
4,-3,1
4,-4,3
4,-5,4
1,-1,4
2,-3,2
1,0,4
1,-2,4
2,0,6
2,-1,4
4,1,4
5,0,3
6,-1,3
5,-2,4
5,-4,4
8,0,0
5,-1,0
5,-2,5
3,0,3
5,0,4
0,-3,0
3,-2,1
3,-3,1
4,-1,3
2,-2,2
2,0,2
2,-2,4
6,1,2
2,-3,3
1,0,1
2,-1,2
0,2,3
-1,-3,2
0,1,0
-1,-3,3
-1,-1,3
-2,-1,3
3,-2,2
2,-2,3
2,2,1
3,1,0
9,-1,3
7,-2,1
10,4,-1
11,4,-5
6,6,-3
6,10,-4
3,8,-3
0,10,-1
-2,9,2
-8,6,7
-9,6,11
-14,7,13
-8,8,13
-2,10,13
8,11,10
16,11,6
29,8,7
35,15,1
37,6,0
40,5,-1
34,3,0
34,0,-3
29,-2,-4
25,-4,-2
20,-5,0
15,-5,0
7,-4,0
3,0,0
3,0,4
0,0,7
-2,0,10
-2,3,9
-3,1,10
-3,0,9
-1,1,12
0,1,12
1,0,8
-5,1,6
0,-1,7
-3,-2,2
-1,-3,3
-3,-6,1
-3,-8,2
-3,-9,1
-2,-12,0
-4,-14,0
-3,-10,0
0,-10,0
1,-9,0
-1,-7,-2
-2,-8,-1
-3,-5,-1
-2,-1,0
-3,-2,-1
-5,0,-1
-10,3,-4
-9,5,1
-11,2,1
-14,5,0
-14,4,1
-12,5,3
-10,7,2
-10,4,4
-2,4,2
0,4,4
4,3,-1
9,1,0
9,0,-2
10,-2,0
10,-4,-2
7,-6,0
7,-7,-2
4,-6,0
4,-8,1
3,-8,1
1,-6,4
5,0,3
3,1,5
5,2,8
3,4,10
6,5,9
7,8,9
11,7,9
11,7,5
13,8,8
12,3,3
17,1,5
18,1,1
20,-3,5
24,-3,4
22,-5,2
25,-6,0
23,-8,2
26,-9,1
26,-10,2
23,-6,3
22,-2,2
20,-7,5
19,1,3
17,0,5
13,1,6
14,6,5
11,5,6
9,6,6
6,6,6
6,4,5
3,4,8
3,5,7
4,2,9
2,3,6
2,1,3
0,0,4
0,-2,3
-1,-1,2
0,-1,1
0,-2,0
-2,-2,-1
0,-2,2
1,-5,1
-1,-1,0
-2,0,-3
-1,0,-1
-1,1,0
-2,-1,0
0,4,0
0,3,-1
0,1,-1
-1,2,-2
-4,2,-1
0,5,-3
-2,1,0
-4,2,0
-5,4,-2
-6,4,-3
-7,5,0
-8,4,-1
-6,3,-2
-7,2,-2
-9,4,-5
-6,0,-1
-7,4,-4
-4,1,-3
-5,1,-2
-6,0,-3
-4,0,0
-6,2,-2
-7,2,0
-4,1,-1
-5,0,-3
-4,0,0
0,0,1
-3,0,0
0,-2,-1
1,-1,0
0,-1,-2
2,-1,-1
4,0,-5
4,-2,-3
2,1,-6
-2,4,-7
-2,2,-6
-5,3,-3
-8,4,-3
-16,4,-1
-22,4,4
-23,3,10
-23,4,10
-23,6,9
-13,8,8
-8,8,7
1,12,3
14,8,0
18,8,-6
23,8,-7
24,4,-12
26,1,-12
23,0,-14
18,1,-14
16,-3,-14
14,-3,-9
6,0,-10
8,2,-6
5,0,-3
3,3,2
4,6,5
2,5,11
6,5,6
3,9,5
8,9,7
7,14,6
9,12,7
5,10,0
5,9,-2
9,8,-4
12,5,-3
14,0,-6
14,0,-1
14,0,0
16,-2,0
18,-4,2
19,-4,5
18,-5,6
16,-6,5
16,-4,7
14,-5,3
12,-3,6
14,-5,7
14,-2,4
10,1,4
9,0,4
4,1,2
3,1,3
2,3,4
3,0,3
0,4,3
0,6,0
-2,7,2
0,2,4
0,1,1
2,2,-2
4,1,-2
6,1,-4
10,0,-7
7,0,-7
4,0,-4
2,-2,-8
0,0,-5
-2,-2,-5
-6,-2,-7
-6,-3,-5
-8,-5,-6
-7,-1,-2
-11,-2,-3
-8,1,-3
-7,0,0
-5,0,-2
-4,-1,-1
-3,0,-5
-1,-1,-4
2,-3,-4
0,-1,-6
1,-2,-3
0,-2,-5
0,-2,-5
0,-5,-5
-1,-4,-6
-1,-8,-7
0,-6,-7
0,-7,-4
-1,-8,-3
1,-7,-2
0,-5,-1
0,0,0
0,-1,0
-1,2,-1
0,0,-2
1,3,-2
-1,1,-3
-4,2,-2
-4,0,0
-5,2,0
-3,2,1
-7,0,-1
-5,2,0
-6,-1,-1
-7,-1,1
-10,1,1
-9,-1,2
-7,-3,2
-8,-2,0
-7,-3,0
-7,-3,-2
-9,-1,-3
-9,-4,-2
-5,-1,-3
-6,0,0
-7,0,0
-7,0,0
-2,2,0
-4,3,-3
-6,2,-3
-3,2,-2
-3,3,-2
-4,0,-5
-3,0,-4
-4,2,-4
-4,0,-2
-4,-1,-1
-4,-3,-2
-8,-4,-1
-8,-5,-1
-7,-6,0
-6,-3,-1
-8,-1,0
-8,-2,2
-6,-1,1
-7,0,-1
-6,0,0
-5,2,0
-3,1,0
-4,1,2
-2,2,2
-2,0,1
1,0,4
0,0,2
3,0,2
4,0,0
5,0,4
6,0,0
5,0,2
8,0,-2
11,0,-1
12,0,-1
13,-2,0
13,-2,0
15,-5,0
13,-4,1
12,-6,0
16,-7,5
11,-5,0
9,-5,1
3,-5,0
-1,0,0
-8,-1,0
-13,-4,0
-18,-2,3
-24,0,9
-24,0,11
-24,2,13
-20,4,12
-10,4,10
-2,7,6
3,8,2
12,7,1
19,9,-2
18,1,-1
16,0,-5
14,-5,-5
11,-6,-9
7,-11,-10
4,-10,-6
3,-14,-6
-3,-15,-3
-3,-15,-1
-6,-15,0
-6,-11,3
-7,-8,5
-6,-8,2
-9,-5,4
-8,0,0
-9,-3,3
-7,-3,2
-5,-1,2
-8,-1,0
-9,-2,-1
-8,-3,0
-5,-5,-1
-6,-7,-4
-8,-11,0
-5,-12,0
-4,-16,1
-1,-17,0
-1,-21,1
0,-21,3
0,-18,4
2,-19,2
0,-13,0
0,-6,1
0,-3,-1
3,-5,0
0,-1,0
0,-6,4
-4,-3,2
0,-1,5
-5,0,1
-3,-1,2
-3,-1,4
-2,-2,5
-3,-2,5
-2,-7,4
1,-10,1
1,-9,2
6,-10,0
7,-11,0
6,-12,0
6,-16,-1
3,-15,1
3,-16,1
0,-16,2
0,-12,1
-3,-12,3
-3,-12,5
-2,-12,3
-2,-12,5
-2,-6,6
-1,-7,12
-1,-3,8
1,-2,4
1,0,6
6,-4,0
5,-1,1
7,-3,0
11,-6,1
9,-6,-2
9,-9,-5
10,-11,-1
7,-14,0
7,-15,-4
6,-18,-1
5,-15,-4
4,-10,-2
4,-6,-3
1,-4,-5
-1,-5,-4
1,-7,-3
-2,-5,-3
-4,-4,1
-4,1,3
-9,4,0
-11,3,-1
-9,1,0
-13,3,1
-12,0,0
-9,-2,4
-9,0,3
-12,1,1
-9,2,3
-8,6,2
-5,5,1
0,5,3
3,2,2
0,0,0
1,2,0
-1,4,-1
3,0,4
3,1,3
0,-2,6
2,0,8
0,0,6
1,-1,7
0,3,8
0,0,5
-4,-1,3
0,0,5
-1,6,5
-2,4,9
-2,6,4
-4,7,7
0,11,7
-3,10,9
-3,9,11
-6,12,12
-6,13,9
-7,13,5
-8,11,6
-8,12,5
-12,9,6
-9,11,1
-14,10,4
-11,14,1
-14,14,-1
-13,18,0
-15,16,-1
-13,14,2
-15,19,-2
-17,21,-1
-13,24,2
-13,24,1
-12,21,3
-13,25,0
-13,26,-3
-14,25,0
-12,25,-2
-12,23,0
-11,24,0
-11,26,1
-7,24,0
-2,23,1
-4,21,-2
-1,18,-2
-1,19,-5
0,21,-7
-3,25,-8
-9,27,-9
-13,26,-2
-16,26,-5
-20,26,-1
-24,29,2
-22,27,6
-22,31,10
-19,33,8
-10,36,12
-2,36,9
0,33,6
9,30,5
12,28,2
14,23,-1
10,21,-3
5,14,-4
0,16,-4
-5,16,-7
-7,15,-4
-11,13,-5
-16,7,0
-18,5,-1
-17,-1,0
-16,-7,3
-16,-6,6
-15,-12,3
-11,-17,7
-10,-22,7
-12,-26,9
-10,-32,7
-9,-32,5
-6,-37,3
-2,-44,3
-3,-46,2
0,-47,4
-3,-46,1
2,-49,3
3,-43,1
5,-41,1
7,-36,0
6,-34,-1
9,-32,0
7,-33,5
7,-31,2
6,-13,2
6,-37,1
7,-29,2
4,-21,1
2,-13,3
0,-14,0
-5,-11,2
-8,-4,5
-13,-2,4
-13,-1,8
-13,0,8
-14,4,7
-14,25,6
-8,21,10
-7,15,6
-5,20,9
-4,20,8
-5,24,5
-8,29,4
-5,32,5
-13,35,8
-12,35,7
-18,35,8
-21,40,11
-23,43,10
-23,43,8
-23,44,10
-22,41,9
-19,40,5
-20,41,9
-18,33,9
-17,33,9
-17,27,10
-16,23,8
-15,16,9
-14,11,7
-15,7,3
-16,4,2
-17,0,2
-15,0,3
-13,-3,-2
-13,-12,-6
-9,-14,-7
-8,-15,-4
-4,-14,-4
-4,-9,-4
-1,-10,-1
1,-8,-2
3,-6,0
6,-5,1
8,-3,2
13,-2,-1
10,0,0
11,-1,-2
10,-3,0
8,-1,0
10,-2,0
10,-4,2
10,-4,2
9,-8,6
11,-12,8
11,-16,6
12,-19,9
11,-22,10
9,-28,10
10,-32,11
15,-33,13
14,-35,11
15,-39,13
16,-41,8
17,-42,7
18,-39,8
18,-40,5
16,-39,8
16,-38,6
17,-36,5
17,-33,4
18,-33,7
18,-31,7
12,-29,6
16,-28,7
18,-24,3
14,-19,8
15,-17,6
16,-18,7
15,-19,7
16,-11,4
14,-2,4
14,8,-1
13,9,-2
10,12,-1
10,14,-2
8,14,-1
5,14,0
3,5,1
4,2,0
1,-1,1
0,-2,0
0,-2,0
-3,-5,-1
0,-4,0
-3,-1,-4
-3,-1,-4
-6,1,-6
-8,3,-7
-11,3,-7
-13,4,-4
-15,9,-6
-19,8,0
-21,14,0
-23,15,0
-21,15,4
-18,15,5
-12,17,3
-3,13,2
1,12,4
7,8,0
14,7,-4
14,4,-1
16,6,-3
16,8,-11
15,7,-12
11,5,-10
5,5,-10
3,2,-11
1,1,-15
-3,-5,-14
-6,-3,-15
-6,-5,-14
-10,-2,-11
-11,0,-8
-14,1,-3
-18,6,-1
-17,9,-2
-17,9,0
-17,9,0
-21,8,0
-21,5,-1
-19,4,2
-17,1,-1
-17,0,0
-16,0,1
-13,2,-1
-11,-1,1
-8,0,0
-2,-2,-1
-3,0,-4
-1,46,-11
3,47,-7
5,14,-9
6,8,-8
8,4,-4
9,2,-4
8,4,-4
11,5,-1
7,5,-2
8,4,-1
8,5,-1
5,4,-1
5,6,1
1,8,1
4,10,2
4,12,5
4,15,3
6,15,1
8,16,0
10,10,-1
11,11,2
12,11,3
8,8,4
8,7,4
9,3,5
6,1,6
0,1,8
-2,1,12
-5,-1,15
-9,-1,21
-16,-1,24
-23,-4,24
-28,-1,29
-30,1,29
-30,6,32
-36,8,32
-33,12,31
-31,12,28
-25,15,28
-21,15,19
-15,13,10
-10,12,6
-4,11,1
-1,11,-2
1,5,-11
4,0,-12
9,0,-13
11,-4,-17
11,-8,-16
9,-8,-13
11,-11,-13
11,-11,-9
11,-11,-10
11,-11,-5
11,-8,-1
10,-5,0
13,-4,4
11,2,2
11,0,2
10,4,2
11,3,2
14,1,1
12,2,-2
11,-1,-1
10,-8,-2
11,-10,-3
13,-12,-6
11,-17,-6
12,-14,-8
10,-13,-6
9,-12,-5
11,-11,-4
7,-10,-2
11,-9,-2
8,-10,0
8,-8,-2
5,-8,-2
5,-5,0
5,-6,0
5,-2,-1
4,-5,-5
6,-5,-8
7,-2,-7
6,-5,-10
6,-2,-9
7,-4,-10
7,-6,-9
7,-4,-5
4,0,-7
4,0,-8
0,4,-8
-2,3,-6
-2,7,-5
-7,3,-1
-12,2,0
-13,-1,3
-15,-1,5
-12,-3,7
-10,-3,5
-6,-1,3
0,-1,5
6,0,-1
10,1,0
14,5,0
21,7,-3
21,3,-1
23,1,0
20,4,-2
17,2,-5
16,0,-2
14,2,0
9,4,-1
8,0,-2
7,-2,1
7,0,5
4,-4,8
3,-7,6
3,-9,9
0,-10,7
-4,-8,8
-1,-9,6
-4,-9,9
-1,-7,8
-4,-3,3
-2,-2,3
-2,-3,1
-1,-2,0
0,-1,0
0,-5,0
0,-1,0
0,-1,0
0,-4,1
2,-2,1
2,-4,3
2,-3,0
2,-3,0
0,-5,-1
1,-3,-1
3,-3,0
4,-5,0
3,-4,1
2,-7,-1
0,-7,-1
0,-5,1
-4,-5,2
-1,-4,2
0,-6,3
-4,-2,-1
-3,-4,-1
-2,-4,0
0,-1,-4
1,-2,-2
0,-2,0
3,-3,-3
2,-4,0
2,-6,-1
0,1,0
1,-1,-1
-2,-1,-2
-4,0,2
-6,-1,2
-2,-4,5
0,-3,2
-3,-3,2
-1,-3,3
0,-1,1
2,-2,2
5,-3,1
4,-3,0
6,-1,0
7,-1,-1
12,0,0
7,0,-1
7,1,-2
9,-3,-5
7,-4,-1
9,-3,-1
8,-5,0
7,-5,-2
8,-7,-1
6,-6,-1
2,-6,0
0,-2,0
1,-2,0
3,-1,0
1,0,0
-1,1,0
-3,1,0
-2,1,-4
-1,0,0
-5,1,-3
-7,2,0
-6,3,0
-5,1,1
-7,1,-2
-7,-3,3
-4,-1,3
-7,-5,2
-8,-4,2
-9,-3,1
-6,-6,1
-4,-3,3
-4,-1,4
-3,-2,4
-4,0,3
-1,-1,3
0,-3,0
1,-3,1
1,-7,-2
5,-6,-1
5,-10,-1
5,-8,-1
7,-11,-3
7,-12,-2
7,-13,-4
9,-11,-5
7,-11,-6
8,-16,-2
2,-13,-5
0,-12,-5
-3,-9,-6
-7,-10,-8
-11,-10,-7
-14,-10,-4
-15,-10,-3
-20,-9,-2
-20,-8,2
-21,-6,1
-18,-3,0
-12,-5,1
-8,-4,0
0,-4,-3
5,-3,-4
8,-3,-5
11,-3,-6
14,-3,-6
15,-7,-11
11,-8,-9
11,-10,-11
9,-11,-9
3,-9,-8
3,-10,-8
0,-10,-5
-4,-12,-2
-5,-8,0
-5,-9,3
-6,-8,4
-6,-9,3
-6,-5,5
-8,-5,5
-5,-5,3
-4,-2,2
-4,-2,1
-4,0,-1
1,-6,0
-1,-4,-3
-1,-3,-3
1,-3,-5
0,-4,-2
0,-5,-2
1,-6,1
0,-5,1
0,-4,4
-1,-5,4
-2,-8,5
-4,-4,6
-1,-5,6
-1,-3,7
-1,-2,4
0,-1,4
4,-3,7
2,-2,2
4,-1,6
2,-2,3
-1,0,0
1,-2,4
-1,-5,0
-2,0,5
0,0,3
2,1,1
2,3,1
3,0,1
1,0,2
2,-1,2
2,-2,-2
4,-3,0
3,-6,4
3,-5,3
3,-6,2
5,-5,4
2,-4,4
0,0,0
2,-1,2
-1,1,1
1,2,1
-1,0,3
0,-1,3
3,-2,5
2,-4,2
4,-2,1
3,-5,2
6,-7,0
4,-8,2
8,-8,2
6,-10,0
6,-9,0
7,-10,0
6,-9,-1
2,-8,-3
3,-7,1
3,-8,-1
4,-7,-2
1,-3,-2
0,-1,-3
3,0,-3
1,0,-3
-1,0,-3
0,-2,-1
-1,-1,0
0,-5,0
-5,-5,0
-6,-11,2
-3,-13,3
-4,-12,2
-4,-14,2
-3,-14,1
-1,-12,1
-1,-9,1
-1,-9,0
-1,-7,0
-1,-8,0
0,-4,-1
-2,-6,0
-2,-6,3
0,-4,1
-2,-6,5
-1,-6,0
0,-7,6
2,-4,2
1,-3,3
3,-5,4
1,-6,2
2,-5,3
2,-5,2
0,-2,0
1,-5,2
3,-3,0
1,-2,0
1,-4,-1
0,-3,0
0,-4,2
-2,-6,0
-1,-4,1
-2,-6,1
0,-8,1
-4,-2,1
-4,0,3
-2,1,1
-1,3,1
-3,3,1
0,3,1
1,3,0
1,1,0
3,0,0
4,0,-2
6,-2,0
5,-1,-1
7,-4,0
5,-3,-2
6,-1,0
5,1,0
5,-1,-1
5,-1,2
5,1,0
6,2,-1
6,4,-2
5,4,-1
9,2,0
8,4,-1
12,2,0
8,2,0
11,-1,-1
7,-4,2
7,-3,-3
8,-5,-1
7,-9,1
4,-9,1
3,-9,0
5,-4,-1
6,-4,0
6,-5,3
3,-4,4
7,2,2
10,2,5
9,1,1
13,2,1
13,5,-3
14,6,-2
9,8,-7
9,7,-6
5,7,-4
-2,7,-3
-6,2,2
-10,0,4
-19,2,8
-20,-3,9
-15,-4,11
-10,0,9
-5,0,2
3,3,1
13,2,-7
18,5,-3
25,1,-6
26,5,-6
25,-1,-7
19,-2,-7
13,-5,-8
9,-6,-9
3,-4,-6
-3,-3,-4
-8,-4,0
-13,-4,1
-13,-3,4
-12,1,3
-12,2,9
-11,6,11
-8,0,9
-7,0,7
-6,0,9
-5,1,8
-3,0,6
-2,0,7
1,-1,6
0,-3,4
-2,-3,4
0,-4,1
2,-5,0
3,-5,0
6,-7,-3
7,-7,-1
9,-7,0
10,-8,0
11,-7,2
8,-4,0
8,-4,0
9,-6,2
8,-5,0
4,-3,0
2,-4,2
-1,0,4
-4,2,3
-4,2,5
-7,2,5
-7,3,5
-7,0,6
-5,2,5
-2,2,0
0,0,-2
6,1,0
8,-2,0
10,1,-2
13,2,-3
11,0,-3
7,-3,-2
5,-2,-1
2,-5,-2
2,-4,0
-1,-2,3
-2,1,2
0,-2,4
1,1,6
1,3,8
2,4,4
4,3,7
9,0,6
7,2,4
7,1,5
7,0,4
11,-2,0
12,-3,-1
10,-4,-2
9,-3,-2
9,-7,-2
8,-10,-1
8,-10,0
7,-6,-2
8,-8,2
7,-7,0
7,-7,0
5,-4,0
3,-1,0
3,-2,1
0,0,0
1,-2,-1
-4,3,3
-4,4,1
-7,6,2
-7,5,1
-10,3,2
-7,4,3
-5,1,3
-9,5,0
-8,1,4
-7,1,2
-6,0,5
-5,-2,4
-4,-2,5
-7,0,6
-5,-6,5
-1,-2,6
-2,-4,9
-3,0,6
-2,-3,5
-2,-2,5
-4,-2,6
-1,-2,6
-3,-2,6
-1,0,7
3,-2,5
0,0,5
2,-1,6
3,1,4
2,0,3
2,0,5
4,-1,4
1,-1,3
1,-4,2
0,-3,0
3,-4,1
0,-5,0
-2,-5,1
-7,-1,0
-3,0,2
-2,0,4
-3,0,1
-5,0,2
-3,1,4
0,1,3
1,5,4
3,2,3
3,2,3
4,4,3
8,3,4
6,0,4
8,1,3
7,-3,1
4,-1,2
6,-2,0
4,-1,2
6,0,1
5,-1,3
3,0,3
4,3,1
7,0,2
7,3,3
8,2,1
10,4,0
10,1,-4
14,2,-5
13,9,-6
6,13,-3
2,15,-1
-1,9,1
-10,3,3
-16,0,9
-19,-1,11
-18,-4,12
-14,-5,12
-10,-3,12
-2,1,9
7,-4,5
11,-5,1
18,-4,3
19,-4,2
16,-5,0
14,-7,0
16,-7,-2
10,-11,-2
6,-8,-1
1,-3,-1
-3,-4,-1
-5,1,3
-9,4,3
-7,3,7
-8,4,9
-10,4,7
-7,2,6
-6,1,7
-8,0,8
-4,-3,9
-5,-2,6
-4,-5,7
-3,-7,5
-5,-8,1
-2,-9,3
-1,-7,2
1,-10,4
4,-13,0
4,-10,2
3,-8,0
3,-9,0
7,-6,0
3,-3,-1
3,-4,1
7,0,-1
8,0,-2
4,1,-1
7,6,-2
5,7,-5
4,9,-1
0,9,-2
0,8,2
-5,8,0
-4,5,1
-6,4,2
-3,1,3
-5,1,1
0,2,0
4,0,1
6,3,0
11,1,0
16,-1,-1
14,-3,-1
14,-4,-1
17,-7,-2
15,-8,-2
10,-9,0
11,-8,0
8,-8,1
8,-9,3
9,-7,6
7,-7,3
5,-6,3
6,-6,7
2,-3,7
2,-2,7
0,0,9
-1,2,6
-4,0,9
-2,0,8
-3,-2,7
-5,-1,3
-4,-2,3
-2,-2,0
0,-7,0
1,-6,-1
0,-8,0
3,-9,0
2,-9,-2
2,-8,-2
3,-7,1
3,-8,0
2,-5,-1
4,-4,-2
4,-4,-3
2,-3,-2
1,0,-4
0,0,-3
1,-1,-4
-2,0,-5
-3,-2,-3
-4,-2,-2
-6,0,-2
-7,0,-3
-5,-3,0
-4,-4,0
-4,-4,2
-5,-3,0
-7,-5,0
-7,-1,3
-5,1,4
-9,-4,2
-8,-3,2
-7,-1,1
-6,1,2
-7,3,5
-6,5,4
-7,3,1
-5,4,2
-5,3,3
-4,2,0
0,3,3
-1,-1,5
0,0,4
0,-4,4
-1,-3,6
-2,-4,5
-2,-3,5
-4,-5,6
-7,-2,5
-8,0,4
-10,0,3
-9,1,2
-8,1,3
-8,2,1
-8,2,2
-4,2,4
-5,0,2
-4,3,1
-2,3,1
-2,-1,1
-4,-3,3
-4,-1,0
-6,-5,-3
-8,-4,-1
-6,-5,-2
-5,-5,-4
-10,-7,-2
-8,-8,0
-6,-4,-1
-6,-5,-2
-6,-4,0
-6,-1,-2
-5,-3,-6
-5,1,-7
-6,5,-5
-9,2,-6
-13,7,-3
-16,7,-4
-19,4,0
-25,4,1
-30,4,3
-30,4,9
-24,3,6
-17,3,5
-13,4,4
0,5,0
8,5,-3
14,5,-4
17,6,-2
19,3,-9
24,2,-9
18,4,-12
16,-3,-9
13,-4,-12
12,-3,-8
7,-4,-7
8,-3,-7
1,-3,-4
1,-1,-3
-2,-1,0
-1,-1,3
-3,-1,4
-3,0,6
-4,0,4
-7,1,3
-4,0,4
-2,-2,3
-1,-7,5
-2,-2,2
-4,-11,-1
-3,-5,1
0,-9,2
4,-10,3
3,-10,3
8,-12,1
8,-6,-3
11,-9,0
10,-6,0
11,-4,-2
9,-2,0
10,0,2
8,-1,1
8,1,0
4,4,1
6,5,2
6,4,2
6,7,2
0,3,3
2,2,6
0,1,1
1,-3,3
1,-1,9
0,-2,4
3,-1,4
6,-1,2
11,0,0
14,2,-1
13,1,-2
13,0,0
10,0,-1
13,-1,-3
10,-1,-2
6,-3,-1
4,-1,-1
1,-4,1
0,0,0
-2,-1,1
-3,1,2
-5,0,0
-3,-1,4
0,0,5
-2,0,3
-5,0,2
-1,2,2
0,1,3
-3,0,4
-5,1,0
-6,0,-2
-12,-2,-2
-15,-4,-1
-17,-4,-4
-20,-5,-3
-22,-8,-2
-21,-6,-5
-22,-6,-6
-21,-8,-5
-21,-8,-6
-20,-8,-6
-19,-6,-6
-18,-5,-7
-14,-4,-7
-14,-4,-5
-17,-1,-5
-17,2,-4
-15,0,-7
-15,-1,-5
-14,-2,-1
-14,-2,0
-13,-4,-5
-15,-5,-5
-13,0,-4
-12,-4,-5
-9,0,-3
-12,-2,-2
-9,-2,-2
-8,-1,-1
-4,-2,1
-2,0,1
-1,-2,-1
3,-2,-2
3,1,-2
4,0,1
8,5,0
10,0,6
12,-1,6
13,-2,5
14,0,4
11,0,3
13,-4,2
15,0,3
17,-2,2
17,0,5
16,0,2
17,1,1
18,1,1
17,2,1
16,2,0
13,1,-1
12,3,1
10,3,2
5,0,0
4,1,1
2,1,0
0,0,0
-1,0,2
0,-1,4
-3,0,1
-4,0,0
-6,0,3
-6,0,3
-8,3,0
-8,0,2
-6,-2,0
-11,0,2
-9,1,0
-8,3,0
-7,2,-2
-7,0,0
-7,2,0
-4,0,0
-5,3,-1
-3,0,1
-3,-1,0
0,1,-1
2,0,-2
6,-2,-2
8,-1,-2
9,-1,0
8,-1,-2
14,-2,0
14,0,-2
15,1,0
18,-2,-2
18,0,-3
19,1,-4
17,2,-3
12,2,-2
8,2,0
4,4,0
1,4,2
-1,4,5
-4,2,9
-11,7,12
-7,5,12
-9,7,11
4,8,9
6,10,5
13,11,3
20,13,2
20,13,-1
19,11,-2
20,7,-5
18,4,-6
15,0,-1
11,-1,-2
8,-2,-3
3,-3,-1
-1,-7,0
-6,-3,3
-8,-4,2
-10,-5,6
-9,-5,6
-9,-5,7
-9,-4,5
-6,-5,6
-5,-3,6
-6,1,-1
-8,-4,-3
-4,0,-4
-3,1,-1
-4,-2,-3
-3,-1,-1
-3,-3,-3
-5,-3,-2
-4,-4,0
-5,-2,-2
-1,-6,0
-3,-9,3
-2,-6,2
0,-7,3
-2,-6,2
0,-8,1
0,-3,-1
4,-6,-2
3,-3,-5
7,-4,-3
10,-1,-5
13,0,-4
10,0,-5
11,-2,-4
11,-1,-4
11,-1,-5
10,-1,-7
10,-4,-4
10,-5,-4
12,-3,-3
10,-7,-5
12,-7,-5
15,-6,-6
13,-7,-3
13,-3,-6
12,0,-3
11,-2,-6
11,-3,-3
9,-1,-4
4,-1,-4
2,-1,-2
0,-2,0
1,0,-5
-2,1,-3
-1,1,0
1,0,2
-1,-2,0
-2,-2,-1
-3,-2,-3
-1,-4,2
0,-3,-1
1,-1,-3
1,-6,-3
4,-3,-4
2,-5,-5
3,-3,-3
6,-4,-1
4,-2,-3
3,-4,0
4,-3,1
5,-1,1
7,-6,4
6,-6,2
3,-2,3
4,-1,2
4,0,3
3,1,4
4,3,0
5,5,2
4,9,2
5,13,4
5,22,5
5,25,11
8,31,11
3,39,14
3,42,19
4,46,20
2,46,22
1,47,23
0,48,20
-1,42,18
0,41,20
0,32,17
0,27,13
0,20,10
-3,13,9
0,5,6
4,-1,0
3,-4,2
5,-9,1
6,-10,4
5,-12,2
8,-12,-2
7,-11,0
7,-10,0
8,-11,0
6,-11,1
8,-10,2
6,-5,-1
3,-3,1
3,-2,1
4,-2,0
2,-6,0
4,-6,0
1,-7,0
3,-6,-3
0,-7,-3
0,-12,-3
0,-10,-6
0,-9,-6
-2,-14,-2
0,-12,-5
0,-13,-4
-2,-10,-5
-1,-10,-4
0,-5,-4
1,-7,-3
1,-4,-2
-1,-4,-5
2,-6,-4
-1,-4,-3
1,-5,0
3,-8,0
-1,-2,-2
0,-7,-2
0,-5,-2
3,-2,-2
1,-3,-2
1,-4,0
0,-2,-5
6,-2,-2
4,-2,-2
0,0,0
6,-1,-1
5,-1,0
6,0,-2
5,-3,-1
10,-3,-2
6,-2,0
5,-5,0
5,-1,-3
4,-5,0
3,-2,-2
4,-4,-2
3,-4,-1
6,-4,0
8,-3,-2
6,-5,0
7,-4,-1
7,-7,0
5,-5,-1
3,-4,0
3,-3,-2
0,-4,-2
-4,-1,-4
-5,0,-4
-10,-1,-5
-12,-2,0
-15,4,1
-19,2,2
-16,2,7
-15,2,7
-9,3,5
-2,3,4
4,6,5
9,5,0
15,6,-2
16,1,-2
17,0,-5
15,-1,-4
13,-4,-7
13,-3,-5
9,-6,-4
9,-4,-4
6,-4,-1
5,-4,-1
3,-4,1
0,-6,0
2,-6,3
1,-3,3
0,-4,5
1,-4,2
0,-4,7
1,-2,-1
3,-5,2
1,-6,-6
1,-5,-3
1,-8,-4
1,-7,-3
-1,-8,-4
-2,-8,-3
0,-8,-3
-1,-11,-3
-3,-10,0
-3,-13,1
-1,-9,0
-1,-11,1
0,-9,1
-1,-8,-3
0,-9,-1
0,-8,-3
1,-8,-1
0,-5,-1
1,-6,-3
1,-6,-2
-1,-5,-4
0,-3,-2
-3,-2,0
-4,-2,0
-4,0,-1
-3,0,-2
-5,0,0
-6,1,1
-6,0,0
-6,0,-1
-4,1,1
0,3,1
1,0,0
2,0,0
4,-2,0
3,-2,0
4,-2,1
1,-2,0
0,-7,2
3,-6,1
0,-6,3
1,-6,2
1,-6,3
0,-4,1
4,-2,1
1,-4,-1
2,0,0
8,0,4
7,-2,0
6,0,0
7,-1,1
11,-4,2
8,-4,0
9,-5,-3
9,-8,-3
8,-7,-1
5,-9,0
5,-7,-4
7,-10,-2
4,-8,-1
3,-4,0
1,-3,-1
4,-1,0
2,-2,-1
-2,0,-1
-5,0,-2
-5,1,0
-9,0,-2
-10,2,3
-10,3,0
-14,3,2
-13,2,4
-14,5,8
-12,5,6
-12,3,4
-11,3,3
-11,4,3
-10,3,3
-11,4,2
-8,7,1
-12,7,0
-11,5,0
-12,4,0
-14,6,0
-13,6,-1
-12,3,1
-9,2,3
-9,2,4
-7,2,1
-2,1,0
0,0,0
-1,0,0
-1,0,-1
2,0,-2
1,-1,-3
5,-2,-5
5,-2,-4
5,-3,-4
6,-4,-4
8,-4,-4
7,-1,-4
7,-1,-2
7,-1,-5
5,-3,1
5,1,1
6,-1,0
4,-3,4
4,0,2
5,-2,1
6,0,3
2,-1,3
3,-6,1
2,0,0
0,-2,1
3,-3,1
0,-2,-1
0,-3,0
0,-2,3
0,-3,0
0,-3,-1
-1,-4,1
-1,-2,1
-2,-3,3
-6,-3,1
-3,-1,0
-1,-2,1
-3,-2,0
-2,-4,0
-2,-4,0
0,-2,-1
0,0,-1
1,-1,0
1,-3,0
3,-1,-3
6,-4,-1
3,-2,-2
3,0,0
3,-1,1
3,-3,-3
6,-2,0
2,-4,-3
5,-2,-2
8,-3,-1
5,-2,-1
9,-1,-4
12,0,-3
13,0,-6
15,1,-5
18,4,-8
16,8,-10
14,7,-9
10,8,-7
7,7,-6
4,5,-5
-2,1,1
-4,2,8
-7,0,7
-9,3,11
-5,2,9
-1,2,7
6,6,7
14,6,0
21,7,-1
26,2,-1
24,2,-4
26,3,-2
23,-1,-5
20,-1,-6
15,-4,-4
10,-3,-2
4,-2,-3
1,-5,0
-3,0,0
-6,-1,2
-7,0,6
-10,0,4
-11,-1,6
-10,-1,4
-12,-2,7
-7,-3,5
-7,-4,4
-6,-6,3
-7,-6,1
-4,-7,2
-2,-7,0
-1,-9,0
-3,-9,0
0,-9,-2
1,-11,-2
2,-10,-3
5,-6,-3
4,-9,0
5,-7,0
7,-7,0
6,-8,0
3,-6,-1
6,-6,0
4,-4,0
2,-1,-1
0,-2,-2
0,-2,3
-2,1,0
-5,-1,0
-9,1,3
-6,4,1
-7,3,2
-6,2,4
-7,3,3
-1,5,3
-1,3,2
2,3,1
6,3,0
12,0,0
13,0,-6
16,-3,0
12,-3,-1
14,-2,1
9,-1,0
9,-4,4
7,1,3
3,0,7
3,-1,7
3,1,7
5,3,5
6,5,9
8,4,9
10,5,7
14,6,8
18,5,7
20,4,7
19,4,6
21,2,4
23,1,2
21,0,0
21,-3,3
21,-3,1
19,-3,0
21,-7,1
19,-4,-2
19,-4,-1
19,-4,-1
20,-2,-3
21,-4,-2
18,-3,-5
13,1,-6
10,2,-6
10,2,-4
5,-2,-2
-3,2,-1
-5,3,0
-10,6,0
-12,3,0
-14,2,-1
-17,4,-2
-18,5,-1
-17,0,-5
-20,0,-3
-19,2,-3
-17,0,-6
-15,-4,-2
-15,-3,-6
-17,-8,-5
-15,-4,-5
-12,-6,-4
-12,-4,-4
-15,-4,0
-14,-5,-2
-15,-4,-3
-12,-1,0
-10,-1,2
-13,0,0
-8,-1,1
-8,0,0
-5,1,2
-1,0,3
-2,0,6
0,2,3
0,2,2
1,2,1
3,0,4
0,2,4
0,-1,7
-3,6,2
-2,4,3
-4,6,3
-8,9,3
-9,9,5
-11,9,2
-11,7,1
-12,9,4
-11,6,0
-10,4,0
-5,3,2
-6,3,-1
-5,0,0
-6,-1,-1
-3,-1,-1
-3,-2,-3
-5,-2,-1
-1,-4,-1
-5,-2,0
-8,0,-4
-7,-2,-1
-6,-2,-5
-10,-2,0
-7,-3,-1
-9,-2,0
-5,-4,0
-6,-2,3
-3,-2,2
2,2,0
1,0,0
3,-1,-1
11,0,-3
13,-1,-3
13,-3,-8
16,3,-9
12,-1,-7
8,0,-4
3,0,-2
-3,-3,-1
-7,-3,2
-14,-4,7
-15,-4,9
-12,-2,9
-8,1,10
1,3,9
8,7,3
17,7,3
25,5,0
26,5,-2
28,4,-2
27,2,-3
23,-1,-2
20,0,-2
14,-5,-4
11,-7,-1
5,-6,-2
0,-8,2
1,-7,2
-5,-5,5
-6,-2,4
-6,0,7
-6,1,6
-4,3,6
-2,2,3
-6,4,1
0,1,6
-2,0,3
-3,-2,1
-1,-4,1
-3,-5,0
0,-8,1
2,-11,-1
3,-10,-2
3,-9,-2
4,-10,-3
2,-12,-4
2,-9,0
0,-6,-4
0,-5,-4
-2,-4,0
-5,-3,-2
-8,-1,1
-6,3,0
-9,1,-2
-8,0,0
-7,2,-1
-8,1,1
-10,0,-1
-10,3,0
-9,3,-1
-7,4,1
-3,1,3
-1,-2,5
-3,2,2
2,-2,3
7,0,0
10,-2,-2
12,-4,-2
12,-2,-1
10,-3,-1
11,-5,-1
8,-6,0
6,-7,0
3,-6,1
0,-2,4
-1,-4,5
2,-3,8
0,-2,7
0,1,6
4,2,6
7,6,6
5,5,7
10,3,4
13,6,3
12,4,2
17,3,0
16,2,-2
13,-1,-2
13,-2,-3
13,-4,-5
12,-6,-3
9,-4,-2
7,-4,-1
9,-5,-2
2,-6,-1
1,-4,-2
4,-1,-1
0,-2,-2
1,-2,-3
-2,2,-4
-2,3,-2
-6,6,-3
-7,10,-2
-9,9,-2
-11,12,-3
-13,9,-5
-16,11,-3
-18,10,-4
-19,8,-4
-18,10,-5
-19,7,-3
-17,4,-2
-18,2,-2
-14,0,-3
-10,1,-2
-10,0,1
-6,0,0
-4,2,-1
-2,2,0
-1,0,0
0,2,-4
1,0,0
2,0,0
3,-1,0
3,-1,0
6,0,0
5,2,5
8,2,3
6,2,2
6,1,3
7,2,3
7,0,4
6,2,4
11,0,5
9,0,3
11,2,1
14,1,5
11,2,4
11,1,5
12,2,1
13,1,4
12,2,3
10,3,2
6,2,3
7,2,3
6,3,-1
3,1,-1
2,2,1
2,-3,0
-1,-1,2
-3,-2,0
-6,1,-1
-7,0,-1
-5,-1,-5
-7,3,-4
-7,2,-3
-10,6,-9
-13,7,-6
-20,9,-3
-21,9,-4
-27,8,0
-33,10,1
-37,7,6
-37,8,11
-30,5,15
-26,8,10
-13,8,9
-1,7,6
7,6,0
19,9,-1
24,4,-5
32,4,-5
36,1,-6
39,0,-8
36,1,-11
33,-4,-10
32,-4,-9
28,-6,-3
21,-6,-3
19,-7,0
11,-5,5
9,-6,6
5,-3,6
2,-3,10
2,-3,12
3,-2,9
1,-2,9
5,-1,8
0,-2,7
-1,0,9
6,-2,5
4,-4,4
1,-5,0
6,-3,2
5,-8,1
5,-12,0
9,-13,0
7,-11,-2
8,-9,-1
4,-8,-3
6,-5,0
4,-5,-2
-1,-3,-2
-3,-3,0
-3,0,-1
-5,0,-1
-7,1,0
-9,2,0
-8,2,0
-11,1,1
-11,0,-1
-11,0,-1
-7,-2,1
-6,-3,0
-9,0,-1
-9,0,-1
-7,-3,-1
-3,1,-3
-1,-1,0
2,-3,-3
2,-1,-4
3,-3,-1
6,-4,-4
5,-1,-4
5,-5,-3
0,-4,0
0,0,-3
-1,-1,-1
-2,-2,-1
-1,0,2
-2,1,3
-1,3,3
-2,6,4
-2,2,1
-1,5,4
1,2,5
3,1,3
6,0,0
8,-2,4
7,-4,0
10,-3,2
9,-3,-2
8,-8,0
8,-7,0
9,-6,0
10,-7,-2
7,-9,-4
5,-7,-1
6,-7,0
6,-6,-1
3,-5,0
2,0,-2
1,2,-2
3,3,-1
2,7,-3
2,8,-2
1,7,-2
1,8,-2
-3,10,-2
-3,11,-1
-7,10,-1
-8,12,1
-10,9,4
-12,11,2
-16,9,3
-17,7,2
-14,6,4
-17,4,5
-20,2,4
-18,3,4
-16,2,0
-17,0,4
-17,-1,0
-17,-5,0
-13,-6,0
-12,-5,-3
-8,-7,-1
-8,-4,-4
-7,-7,-4
-2,-7,-2
-3,-5,-3
0,-2,-3
0,0,-3
0,2,-5
1,3,0
3,4,0
3,3,0
2,5,-1
2,4,-3
1,2,0
0,1,-1
0,1,0
-2,-2,0
-4,-3,-1
-1,-5,-1
-1,-8,-1
-2,-5,-5
-1,-9,-2
2,-11,-4
2,-8,0
-1,-7,-2
0,-7,-2
3,-7,-2
3,-6,0
2,0,-3
2,1,-4
4,2,-4
2,4,-7
-2,8,-8
-3,5,-5
-4,3,-9
-7,5,-4
-9,4,-3
-8,2,0
-12,2,2
-10,3,0
-5,7,0
1,9,-4
10,8,-8
11,6,-11
18,5,-11
19,5,-18
20,1,-21
18,0,-17
17,-4,-19
10,-6,-22
7,-8,-20
1,-8,-16
-4,-10,-15
-6,-10,-14
-10,-9,-8
-9,-12,-5
-11,-12,0
-12,-11,1
-13,-8,1
-13,-7,0
-14,-5,1
-11,-3,1
-13,-3,-1
-12,-2,-3
-13,-1,-2
-10,-2,-5
-9,1,-6
-7,-1,-5
-8,0,-4
-10,-6,-2
-9,-8,-2
-6,-7,-1
-4,-7,0
-3,-11,0
-3,-6,1
-5,-4,1
-6,-3,2
-4,-2,2
-2,0,0
-2,2,3
-3,-1,3
-4,3,0
0,1,2
-1,3,2
-1,2,5
-3,4,5
-2,4,3
-1,3,3
0,3,5
2,2,5
0,2,4
0,3,3
3,4,5
7,5,0
11,7,0
12,6,-2
16,5,-2
16,5,-1
17,3,0
14,0,-2
13,0,0
12,-1,2
10,-2,0
9,-4,2
6,0,3
6,-2,1
4,0,0
3,0,1
3,-1,1
2,1,1
3,-1,-3
3,2,-1
2,0,-2
0,0,-2
1,-1,-1
2,0,-2
2,-5,-1
1,-4,-3
0,-6,0
0,-2,-4
-2,-5,-4
0,-4,-1
0,-6,-2
0,-7,1
-3,-7,1
-2,-6,1
0,-7,1
-2,-1,3
-1,-5,1
-3,-2,0
-2,0,2
-3,1,4
-5,2,2
-2,1,2
-2,0,6
-1,3,2
-3,-1,5
-2,0,4
-1,-2,3
2,-2,6
0,-2,2
1,-2,6
2,0,3
2,1,2
4,1,4
2,4,0
2,1,1
2,2,1
2,1,3
4,3,2
0,5,1
1,2,0
1,3,0
2,1,0
0,3,3
2,2,-1
0,-1,4
0,0,5
0,-1,3
-1,-4,0
-2,-3,0
-3,-4,0
-2,-2,0
-3,-5,0
-1,-2,1
-1,-4,-1
-2,-4,2
1,-3,0
-3,-1,-1
-1,-2,1
-2,1,-1
-1,-3,0
-2,-1,-2
-1,-1,-1
0,-1,0
-1,-5,-1
-1,0,1
-3,-3,0
-4,-3,1
-3,-1,0
1,-2,2
0,-1,0
0,2,0
0,0,0
0,0,1
2,1,3
4,1,1
2,1,1
5,-1,3
4,1,0
4,0,0
5,-1,1
4,-3,0
4,-2,0
5,-5,4
7,-3,0
9,-6,0
6,-3,-1
7,-2,3
8,-2,-1
6,0,0
8,-3,1
8,2,-1
6,-2,0
2,1,-1
0,1,-1
-3,0,0
-8,0,0
-9,1,3
-17,1,5
-16,1,9
-13,2,9
-15,2,11
-12,7,8
-6,8,5
0,8,2
6,6,6
14,3,2
17,3,1
14,0,-4
15,-7,-2
14,-6,-6
12,-11,-3
9,-10,-5
6,-11,-7
3,-11,-5
1,-10,-2
1,-9,0
-4,-7,2
-2,-5,0
-3,-3,4
-1,-3,4
-1,-3,2
-2,-1,3
-3,-2,2
-3,-1,-1
-2,-2,0
0,-3,1
0,-3,-2
-2,-7,-5
-1,-7,-2
0,-9,-1
-2,-8,-2
0,-10,-3
0,-7,0
2,-9,-2
0,-9,-1
1,-10,0
0,-6,2
1,-6,1
-2,-6,0
-4,-6,1
-1,-2,2
-2,-3,2
-1,-2,1
0,-1,0
-2,-3,1
0,-1,0
0,1,0
-3,0,5
-3,1,1
-3,0,0
-1,-1,1
-5,1,1
-6,0,0
-3,-2,0
-1,-2,1
-2,-2,-3
2,-1,0
3,-1,1
8,0,2
5,-4,-1
6,-1,0
1,-3,3
4,-5,2
2,-6,4
1,-7,1
3,-7,5
1,-7,4
1,-4,3
0,-5,4
4,-4,6
3,-4,3
2,-1,5
6,0,4
3,0,3
7,1,4
6,-2,3
9,-1,1
8,-1,2
9,-4,-2
8,-5,3
8,-7,0
9,-8,0
10,-9,0
6,-6,-2
10,-7,-2
6,-8,0
7,-8,-1
7,-7,1
6,-7,3
3,-6,1
3,-5,1
1,-6,3
1,0,2
1,-2,1
0,2,0
0,3,-1
-1,-1,3
-2,-1,0
-1,-2,0
-2,-1,0
0,-1,0
-2,-3,3
-1,-4,3
1,-3,1
0,-1,0
0,-5,0
-2,-1,0
0,-1,-1
-1,0,0
0,-3,3
0,-6,5
1,-4,3
0,0,0
2,-1,1
1,-3,2
1,-3,1
1,-3,1
1,-3,1
0,-3,0
0,-1,-1
-3,-2,1
1,-4,3
2,-3,2
1,-1,-1
2,-2,0
1,-1,2
1,-1,0
1,-3,2
0,0,0
4,-3,3
0,0,1
2,-1,1
4,0,1
2,-5,1
1,-2,1
2,-3,3
0,-2,2
1,-5,2
1,-3,3
2,-4,2
-1,-2,2
0,-3,1
1,-2,0
2,-5,1
2,-2,1
5,0,3
2,2,2
6,-2,1
4,-1,0
8,-1,0
4,1,1
5,1,0
7,-1,1
4,0,3
4,-2,2
4,-2,1
2,-4,0
3,-6,3
2,-3,1
4,-7,-1
4,-6,3
5,-2,1
4,-2,2
4,-2,-1
3,1,2
10,-1,0
11,-1,-2
9,-1,-1
8,-3,-5
6,2,-3
1,5,-6
-4,2,-3
-9,0,-1
-11,0,3
-15,-3,6
-19,-2,11
-17,0,10
-13,2,9
-5,3,9
2,2,3
11,6,2
18,3,-1
23,0,-4
23,1,-6
24,0,-7
23,-6,-6
18,-8,-5
14,-6,-4
9,-8,-2
4,-7,-4
2,-7,0
-4,-7,1
-6,-5,4
-9,-2,7
-6,0,6
-8,-1,8
-5,2,8
-6,0,5
-6,0,5
-2,2,5
-1,1,3
-3,-1,3
0,-3,1
-2,-5,0
0,-7,1
2,-7,0
3,-9,-1
1,-10,0
3,-9,0
3,-10,-2
2,-10,-3
0,-9,-3
0,-5,0
-1,-1,-1
0,1,-1
-2,1,-4
-2,2,-1
-2,2,-2
0,2,-2
0,5,1
-1,5,-2
0,8,0
-4,2,-1
-4,0,0
-2,-2,3
-5,0,1
-2,0,-1
-1,1,0
3,0,0
6,3,0
10,1,-1
14,1,-2
14,1,-3
12,-1,0
13,-2,-2
11,-4,0
8,-3,1
7,-5,2
4,-5,6
1,-2,2
0,0,4
-1,0,5
1,4,6
2,4,6
4,6,4
7,8,4
9,7,4
12,4,5
15,2,4
16,0,0
17,-4,0
17,-4,0
17,-7,0
15,-8,0
15,-7,-1
11,-8,-2
13,-9,-1
10,-8,-1
12,-8,-1
9,-8,0
9,-4,0
7,-2,0
4,2,0
5,2,1
3,4,2
4,5,-2
3,5,-1
4,5,0
0,5,-1
0,3,0
0,2,-1
-1,5,-1
1,2,-2
-1,0,-2
-1,2,0
-1,2,0
0,3,1
2,2,-1
0,3,0
0,1,1
2,1,1
0,1,1
0,0,0
0,0,1
0,0,0
2,1,0
0,2,0
0,1,1
-1,2,2
-2,1,0
-5,-2,3
-3,1,4
-1,0,6
0,0,3
0,1,4
0,0,7
-2,1,6
-1,-1,3
0,0,1
-1,0,0
0,0,2
0,0,0
0,0,1
-1,2,1
-1,1,0
0,-2,2
-3,-1,2
-1,0,3
1,-1,1
0,1,5
0,3,3
3,2,4
2,2,2
3,0,2
5,1,1
6,-1,0
3,5,0
6,-1,4
8,0,2
6,-2,1
6,-5,3
8,-6,2
4,-3,2
6,-5,0
5,-3,2
5,-3,0
3,-5,0
2,-2,0
1,-1,0
5,0,2
6,1,0
7,2,0
6,3,-3
7,3,-3
8,3,-8
8,4,-5
1,4,-4
0,8,-6
-7,6,0
-12,3,2
-14,4,7
-17,2,5
-15,1,4
-13,3,8
-7,2,5
-2,4,3
5,5,0
14,1,-2
19,3,-3
23,4,-6
22,4,-7
20,2,-8
19,0,-6
11,-1,-8
9,0,-5
0,-2,-5
-1,2,0
-3,-1,0
-5,2,1
-7,3,5
-6,3,7
-5,5,6
-4,3,3
-3,3,5
-3,2,5
-1,-2,7
0,0,4
1,-5,0
2,-7,1
7,-5,1
4,-8,0
6,-11,0
5,-9,-2
7,-7,-1
9,-9,-1
5,-7,0
6,-7,1
5,-5,2
4,-2,5
0,-1,3
-1,1,2
-2,0,4
-4,1,4
-4,-1,3
-2,0,4
-3,1,0
-1,0,2
0,-3,0
0,-1,2
-1,-1,2
-5,0,1
-3,0,0
0,-4,2
-3,0,4
0,-1,6
1,0,3
5,2,4
7,1,2
11,2,2
13,2,0
15,0,1
18,-2,1
12,-2,-1
10,-6,2
8,-6,1
8,-6,1
5,-6,4
3,-5,3
2,-1,1
3,0,1
4,0,6
5,1,2
5,5,1
7,4,0
5,1,2
8,2,0
10,0,2
6,-1,0
5,-2,0
7,0,-7
9,-2,-1
3,-3,-1
5,-6,-1
2,-5,-2
3,-4,-2
3,-5,-4
3,-5,-2
5,-5,-2
3,-6,-3
4,-3,0
2,-4,0
3,0,0
0,1,-2
-2,-1,-2
-2,2,-2
-4,1,2
-4,3,-2
-5,1,0
-5,2,1
-6,1,3
-6,-1,2
-5,-2,3
-1,-3,1
-4,0,2
0,-3,4
0,-3,2
1,-4,3
2,-2,1
3,-1,1
3,-3,1
1,-1,2
6,0,4
3,-1,1
4,0,2
5,0,5
7,1,3
6,0,7
6,3,4
6,2,3
3,-2,3
5,0,3
7,-3,3
5,-1,4
5,-4,2
6,-5,4
4,-3,0
4,-5,1
5,-5,0
5,-5,2
2,-2,1
5,-4,4
2,-2,4
0,-3,1
2,0,-1
2,0,3
0,0,1
-1,-1,-1
-3,0,0
-3,-3,4
-3,-6,1
-4,-2,0
-4,-4,3
-4,-4,5
-2,0,0
-2,-1,2
-5,0,-1
0,2,3
2,1,3
2,0,0
1,1,1
5,-2,0
4,0,-2
4,-1,-2
7,-1,2
10,-2,-1
9,-4,-2
7,-5,-2
12,-1,0
10,1,0
9,1,-1
10,-2,0
8,0,0
8,0,-4
8,1,-1
2,2,-5
-2,2,-4
-7,6,-1
-13,6,0
-20,3,3
-25,4,9
-28,1,11
-30,4,13
-23,2,14
-19,6,13
-12,4,13
0,5,8
9,6,5
11,4,2
20,3,0
23,1,-3
25,-1,-2
26,-3,-3
25,-1,-7
20,-4,-5
16,-5,-3
13,-5,-3
11,-6,-3
10,-6,0
5,-3,-2
2,0,2
1,3,3
2,0,5
0,4,4
-2,1,5
-5,2,3
-6,2,7
-6,0,3
-6,-1,3
-10,-1,2
-8,-2,0
-7,-5,1
-5,-5,-2
-5,-9,-2
-1,-7,-2
-3,-9,-4
-1,-8,-4
0,-9,-2
0,-8,-4
0,-6,-1
3,-2,0
2,-4,0
0,0,-1
2,2,1
2,2,-1
3,4,0
6,2,-1
2,2,0
1,0,-1
1,1,0
-3,0,0
-2,-3,0
-5,0,0
-4,-1,0
-6,-1,-1
-7,-1,2
-7,1,0
-3,0,5
1,2,4
3,1,2
8,3,3
10,0,5
12,0,1
11,2,0
10,-2,0
10,-3,1
9,-3,0
7,0,1
6,-3,0
4,-3,2
3,0,1
7,0,3
6,-1,2
4,1,4
2,2,3
0,3,3
3,2,0
2,2,0
4,3,1
1,1,0
0,0,-2
2,-2,-3
1,-3,0
-1,-2,-3
-1,-7,-1
-1,-4,-4
-3,-6,-3
-4,-5,-3
-2,-6,-1
-6,-3,-3
-4,-6,-1
-6,-3,-4
-6,-2,-3
-7,0,-4
-8,1,0
-4,1,-3
-5,1,-1
-5,3,-5
-4,0,-3
-2,1,-3
-1,-1,-4
-3,0,-2
1,-2,-4
-1,-2,-4
2,-5,-3
3,-3,-2
0,-9,-1
1,-7,0
1,-7,0
6,-6,0
2,-6,0
2,-7,0
3,-6,0
4,-5,-4
6,-5,-2
4,0,-2
2,-4,-1
2,-3,-3
3,-2,-3
2,0,0
-4,1,-2
-1,0,-2
-5,1,-2
-5,1,-1
-6,2,-4
-7,2,2
-7,2,-1
-7,0,1
-6,0,1
-5,-3,3
-7,-2,0
-5,-3,2
-6,-2,3
-4,-1,0
-1,-2,-1
-4,-2,-1
-1,-4,-1
-2,-2,-2
0,-2,0
1,-2,-4
-1,-1,-5
1,0,-2
-1,-1,-1
1,2,-4
1,4,-2
1,-2,0
2,0,-3
2,0,-2
1,0,-1
4,-2,0
1,0,-3
2,-5,-3
3,-1,-1
6,-5,-2
3,-5,0
6,-3,-1
6,-3,-4
6,-4,-2
6,-3,-3
6,-8,0
5,-9,1
5,-8,1
8,-6,2
5,-4,2
4,-4,0
6,-5,5
4,-5,2
1,-3,2
4,0,3
0,0,0
1,0,5
0,-2,4
-2,1,3
-2,1,4
-2,-1,2
-2,0,5
-2,-1,6
-4,2,5
-4,3,3
-6,2,6
-4,1,6
-5,1,4
-3,0,6
-4,0,6
-2,0,7
-3,-1,5
-5,-3,4
-1,-1,7
0,0,5
-1,-1,0
-2,-2,2
1,-4,2
2,-1,5
6,-3,4
4,-2,2
5,0,4
3,-1,3
8,0,4
7,0,5
13,1,4
7,2,0
6,7,0
7,6,0
4,7,-1
0,6,-3
0,7,2
-3,7,0
-6,7,2
-3,7,5
-1,8,7
0,7,2
8,8,4
9,11,2
17,6,0
21,7,-4
24,6,0
22,6,0
24,0,-4
21,0,-4
21,-2,-5
15,-3,-5
12,-5,-4
10,-4,-4
4,-4,-2
4,-2,0
2,-4,3
-1,-2,2
0,-2,4
-1,-2,3
-2,-2,4
-3,-2,3
-5,-4,2
-6,-4,2
-6,-4,0
-5,-4,0
-5,-5,0
-3,-6,-3
-2,-5,0
-4,-4,-2
-1,-5,1
0,-5,0
0,-7,1
1,-4,3
0,-4,5
1,-3,4
3,-2,2
1,-5,2
0,-3,2
2,-4,1
0,-2,-1
0,-4,-1
1,-2,-2
1,-3,-4
0,-3,1
4,-1,0
1,-1,1
4,-1,3
3,0,2
4,1,1
1,0,1
2,4,-1
1,2,2
0,3,0
1,6,-1
3,3,0
2,2,-1
7,0,0
7,-1,0
10,-1,-2
9,-4,-2
8,-4,-2
4,-3,-1
7,-5,-1
5,-4,-2
6,-5,0
5,-4,0
2,-3,-1
4,0,-1
4,2,0
0,4,1
3,3,1
4,4,1
3,2,0
3,0,0
2,1,0
2,0,0
5,-2,0
1,-1,0
2,-4,-1
4,-5,0
3,-3,-3
1,-6,-1
1,-5,-5
3,-4,-3
1,-3,0
1,-5,-1
0,0,-3
1,-3,2
-1,0,-3
0,1,-1
0,5,0
-4,3,1
-4,2,-2
-3,2,-3
-4,1,0
-1,0,2
0,0,0
-2,0,-1
-3,1,-1
0,-1,0
0,-2,1
0,-1,2
2,-3,0
-3,-2,0
0,-2,-1
0,-1,1
0,-1,-1
3,0,0
1,0,1
4,0,0
5,0,0
5,-1,0
6,0,-1
5,2,0
4,2,2
4,1,-1
4,1,1
3,-2,2
5,0,2
3,0,2
3,-3,5
3,-2,0
2,0,1
7,-3,0
4,-3,-2
4,-2,0
3,-2,-3
0,0,-3
1,1,-1
2,0,0
1,-2,1
0,1,-2
1,0,-1
3,-2,1
-1,0,0
0,1,2
-1,1,-1
-2,0,1
-1,1,0
-3,0,3
-3,1,3
0,0,2
0,-1,0
0,0,2
1,-2,0
2,-3,0
3,-1,0
3,-3,0
4,-3,-3
5,0,-1
5,0,-5
4,-1,-1
7,0,1
6,-1,3
3,0,-1
4,0,1
3,-2,1
2,-1,0
2,0,0
0,0,1
0,-1,1
1,0,0
1,-1,0
-2,-2,0
0,-3,0
0,0,1
-2,0,1
0,-3,1
-2,-2,1
1,-4,0
1,-1,0
4,-3,1
3,-1,-1
4,0,0
2,-2,-2
5,-1,-1
2,2,-1
3,-1,0
4,0,0
3,1,-2
1,0,0
4,-2,0
5,-2,0
2,-1,1
2,-2,3
4,-4,0
3,-8,3
3,-4,-2
4,-4,2
6,-3,-2
6,-3,-1
4,0,-5
0,0,-5
-1,1,-5
-6,4,-5
-9,2,-3
-15,2,0
-15,0,6
-18,0,7
-18,2,10
-17,0,12
-13,2,8
-7,4,6
0,5,4
6,3,-1
10,1,0
16,1,-5
16,0,-5
16,-2,-6
13,-4,-7
10,-4,-5
6,-4,-9
4,-3,-7
1,-5,-3
-1,-3,-3
-3,-2,2
-4,-1,1
-6,-3,4
-2,-1,3
-4,-1,3
-5,-3,5
-5,-1,1
-4,0,0
-5,-6,-2
-6,-3,-2
-5,-2,-4
-2,-4,-1
-6,-5,-2
-4,-6,-3
-5,-8,-4
-3,-10,-4
-3,-11,-1
-2,-10,-3
-1,-9,-2
0,-6,-4
-2,-6,-2
0,-2,0
0,-3,-2
0,-2,-6
-1,0,-4
0,0,-5
0,0,-1
-1,-1,-3
-1,-5,0
1,-4,-5
0,-2,-2
-1,-1,-2
-1,-1,0
-3,-2,1
-2,1,-1
-4,-1,0
-5,0,0
-4,1,1
-3,0,2
-1,0,-2
0,2,0
5,4,0
5,1,-1
7,2,0
6,1,1
3,-1,0
5,-3,2
5,-5,4
5,-4,3
2,-6,2
2,-5,6
2,-5,3
0,-1,1
2,-2,1
0,3,2
4,1,6
3,3,3
4,1,2
8,2,1
10,1,0
9,0,0
10,-1,2
12,2,-4
8,-3,-3
12,-1,-5
8,-5,-4
12,-6,-4
8,-5,-2
7,-7,-2
2,-8,-2
4,-8,0
1,-6,-1
2,-3,-2
0,-5,0
0,-1,1
0,-2,-3
0,-1,2
-2,0,0
-4,0,-1
-3,1,-3
-5,0,-3
-4,-1,-2
-4,0,-1
-4,0,-2
-4,0,-1
-5,1,0
-5,0,-1
-3,0,0
-4,1,0
-3,0,1
-2,2,1
-2,1,4
0,2,0
-3,2,0
0,2,4
0,2,3
0,2,5
-2,0,0
-1,1,2
2,0,5
5,-3,5
2,-2,2
4,-4,4
6,-3,3
4,-2,3
6,-1,0
5,0,1
6,0,1
6,-1,1
5,0,3
5,0,4
4,-1,2
2,4,0
5,2,1
1,0,0
0,2,-1
1,1,0
0,2,1
1,2,-1
2,2,1
-2,0,1
0,-1,4
-1,-1,2
0,-1,-1
1,-4,2
-2,-2,0
0,-4,-2
-1,-1,0
-3,0,-1
-3,-1,1
-3,0,3
-3,1,0
-3,2,0
-3,0,1
-2,3,1
-2,0,2
0,2,2
1,3,3
1,6,3
1,1,3
0,4,0
3,3,1
4,3,4
2,1,3
3,0,0
6,4,4
5,2,4
5,0,3
6,0,4
5,2,4
3,0,5
4,0,7
5,2,6
4,2,7
7,3,5
9,0,6
9,1,2
9,3,2
11,2,1
12,6,0
11,3,0
14,2,-2
13,3,-5
9,2,-5
5,2,-1
0,3,-2
-7,1,0
-11,2,1
-17,0,8
-19,0,7
-17,1,12
-13,3,13
-10,3,7
-2,5,7
4,3,5
12,4,1
13,6,-3
14,3,-7
16,3,-7
14,1,-6
12,0,-6
11,-2,-4
5,-2,-6
2,-2,-2
-3,-2,-1
-7,0,2
-8,0,4
-8,4,5
-6,1,6
-7,0,6
-6,0,7
-4,2,5
-3,2,5
-2,0,2
-4,0,1
-1,0,0
-3,0,0
0,-4,-1
0,-3,-3
-2,-5,0
0,-6,-3
2,-6,1
2,-10,1
3,-11,1
6,-7,2
7,-5,0
5,-4,-1
5,-4,0
5,-5,1
5,-2,0
2,0,1
3,1,-3
3,0,0
1,3,-2
1,1,1
0,3,-1
0,2,2
-3,3,1
-2,3,0
-5,5,0
-5,2,0
-5,3,1
-3,4,2
-3,2,1
-2,7,-1
5,0,-3
6,2,-1
11,1,-3
11,-1,-4
8,-2,-1
5,-3,-3
4,-2,0
3,-6,2
2,-6,4
0,-6,1
0,-2,4
0,-4,4
3,0,2
4,2,4
5,2,4
5,3,4
9,3,3
11,3,2
9,3,0
11,1,3
11,0,0
9,-2,0
9,-3,0
7,-3,1
5,-2,-1
3,-5,0
3,-1,0
4,-3,0
0,-2,1
3,-2,0
4,-3,0
1,-4,0
1,-2,-1
0,0,0
2,0,0
-2,-2,-4
0,-2,-3
-3,-3,-2
-5,-2,-1
-6,0,-1
-4,-2,-1
-7,-3,-1
-6,-3,1
-5,0,0
-7,1,-1
-5,0,1
-1,-1,1
-4,0,-1
-2,0,0
-3,-1,0
0,-1,0
-1,0,1
-1,2,0
-2,-3,0
0,-1,0
0,3,4
-3,1,2
0,1,-1
-1,2,1
0,1,0
0,2,2
2,-2,3
6,-2,3
6,-3,1
4,0,3
6,-7,6
7,-3,1
6,-2,3
4,-5,0
5,-3,3
2,-3,4
2,-2,0
0,-2,5
2,-3,3
3,-2,3
3,0,4
3,0,5
1,4,6
4,3,4
3,3,3
3,3,2
1,2,2
0,1,2
-2,1,0
-1,-1,0
0,1,0
-2,2,-1
-2,0,0
-2,-1,3
4,-2,3
0,0,1
1,0,0
2,-1,3
2,0,0
2,0,1
1,0,2
2,-2,4
0,-1,0
0,-2,-2
0,-1,0
2,-1,-1
3,-1,0
3,0,-1
4,-4,0
4,1,0
6,1,1
5,3,0
8,2,-1
9,2,0
8,2,-2
6,4,-5
5,3,-5
0,4,-2
-8,6,0
-9,0,2
-11,0,6
-14,0,9
-16,0,11
-10,0,14
-9,3,11
0,2,9
8,3,5
16,3,3
26,3,0
27,4,-6
30,0,-3
30,0,-3
27,-1,-7
20,-2,-7
15,-4,-7
11,-7,-3
3,-3,-2
0,-6,0
-6,1,5
-8,0,1
-8,0,7
-12,0,7
-8,3,7
-8,4,9
-7,5,7
-3,4,4
-6,2,3
0,0,4
-4,1,2
0,-3,1
-2,-4,-2
-1,-5,2
-2,-6,2
0,-5,-4
1,-8,-1
1,-4,2
5,-7,2
3,-6,4
3,-4,4
5,-3,4
5,0,0
4,1,3
2,1,0
2,4,4
1,3,2
3,6,0
4,4,0
5,3,0
1,2,-1
4,2,-1
2,3,1
-2,2,0
-1,0,-1
-3,2,-3
-2,-1,0
-3,4,-1
-3,3,1
-1,4,0
-2,4,1
1,2,0
6,3,-1
10,3,0
8,0,-4
6,0,0
4,-2,1
1,-3,-4
1,-4,0
0,-5,-2
-3,-1,0
-3,-4,0
0,-1,2
-2,-3,1
-1,2,2
0,1,0
1,3,0
3,2,0
4,3,1
4,2,1
4,4,0
7,0,1
10,-1,0
7,0,-2
9,-2,-2
5,-2,-4
6,-5,0
5,-5,0
3,-4,0
5,-3,-1
4,-2,0
2,-1,-2
4,-1,0
3,-2,-1
2,-3,0
0,-1,-1
-3,0,-1
-3,0,-2
-3,1,0
-7,1,1
-7,2,2
-5,0,0
-9,1,-1
-5,0,2
-5,2,0
-5,0,2
-4,1,0
-3,0,2
-2,-2,1
0,0,1
0,-1,0
-2,-1,3
0,-1,2
1,0,1
0,0,4
2,1,3
2,2,1
4,4,1
4,0,4
4,1,3
6,-1,3
3,1,5
5,0,2
6,-1,3
6,-1,2
4,1,3
6,-2,2
5,-1,2
3,-1,1
3,0,-1
2,2,1
4,1,0
1,3,0
4,2,5
4,0,-1
0,4,0
3,1,0
3,2,1
2,2,0
0,0,0
-2,-1,0
-4,-4,0
-2,-4,-3
-2,-3,0
-5,-3,0
-5,-2,-3
-5,-3,0
-7,-3,2
-9,-4,0
-7,0,-1
-8,0,1
-6,-3,0
-7,0,0
-8,2,0
-8,1,1
-6,2,-3
-5,2,-3
-4,2,-2
-5,2,0
-3,3,0
-3,1,-3
-3,3,0
0,-1,-2
0,1,3
1,0,0
-1,-1,2
1,-2,0
3,-1,-1
0,-3,-2
0,-3,-2
5,-3,0
6,-3,-3
4,-4,-3
5,-4,-3
4,-2,-2
7,-4,-2
7,-1,-3
3,0,-5
3,-1,-3
0,1,-5
-3,3,-7
-5,5,-6
-12,3,-4
-15,5,-5
-19,7,-1
-23,2,5
-29,5,5
-27,4,8
-26,3,11
-21,6,10
-15,4,5
-5,8,6
1,5,4
8,10,0
13,6,-3
18,4,-7
19,5,-8
22,-1,-8
18,-2,-11
16,-2,-8
9,-4,-6
5,-5,-6
3,-5,-3
4,-4,-1
1,-1,5
0,0,3
-1,0,6
0,2,8
-1,3,7
0,3,6
0,4,3
0,1,1
-2,0,0
0,-1,-2
-3,0,-3
-2,-3,-3
-2,-3,-3
-5,-5,-3
-4,-7,-2
0,-7,2
-4,-6,0
-1,-8,0
1,-8,1
0,-3,0
0,-2,-3
2,-3,0
0,1,1
2,0,0
0,1,0
0,0,-1
-3,1,2
1,-1,0
0,0,-2
-1,1,1
-2,3,-2
-1,-1,3
0,1,1
-4,1,0
-3,5,0
-3,2,2
-1,0,-2
-1,2,3
0,3,1
-1,4,2
0,6,0
4,6,0
5,4,-1
7,2,2
7,0,2
8,-1,0
5,-2,-1
3,-2,-1
-1,-4,-2
-3,-1,-2
