80564
80558
80566
80580
80592
80520
80455
80372
80370
80333
80324
80372
80350
80378
80397
80440
80453
80453
80460
80476
80480
80473
80475
80506
80502
80516
80500
80531
80549
80537
80550
80536
80516
80394
80333
80296
80282
80285
80267
80283
80311
80330
80350
80371
80401
80397
80434
80414
80417
80433
80443
80426
80443
80441
80454
80485
80477
80486
80487
80510
80502
80448
80340
80289
80247
80243
80248
80241
80283
80289
80304
80325
80358
80399
80384
80381
80384
80395
80414
80405
80407
80422
80438
80454
80474
80493
80476
80489
80492
80534
80530
80489
80385
80315
80273
80268
80256
80249
80280
80299
80324
80346
80364
80374
80378
80402
80383
80404
80377
80384
80411
80416
80411
80427
80440
80424
80442
80457
80492
80491
80435
80350
80267
80215
80194
80194
80205
80224
80251
80272
80306
80318
80346
80345
80341
80333
80358
80355
80374
80378
80379
80385
80381
80395
80431
80421
80438
80457
80431
80335
80239
80183
80147
80130
80152
80177
80193
80201
80223
80247
80264
80280
80278
80272
80295
80284
80304
80322
80308
80334
80349
80381
80387
80377
80390
80424
80354
80264
80179
80131
80107
80131
80120
80133
80161
80197
80222
80245
80259
80276
80263
80262
80272
80274
80289
80282
80292
80299
80339
80343
80348
80360
80394
80378
80366
80264
80187
80157
80098
80090
80093
80103
80117
80146
80180
80205
80220
80244
80243
80245
80258
80233
80269
80258
80297
80281
80316
80316
80337
80354
80354
80382
80382
80400
80348
80248
80174
80139
80121
80137
80168
80192
80207
80227
80236
80255
80296
80315
80320
80311
80343
80339
80325
80354
80374
80396
80393
80406
80410
80445
80414
80430
80475
80455
80398
80310
80227
80192
80194
80214
80213
80236
80253
80285
80324
80322
80351
80344
80357
80342
80351
80382
80376
80385
80384
80400
80416
80416
80445
80437
80450
80472
80461
80432
80358
80282
80228
80195
80195
80215
80222
80245
80287
80309
80318
80348
80335
80354
80353
80352
80353
80366
80382
80394
80395
80401
80430
80451
80425
80455
80440
80449
80388
80290
80220
80184
80175
80163
80171
80197
80196
80239
80248
80273
80287
80266
80276
80280
80283
80278
80282
80300
80300
80312
80326
80326
80342
80351
80340
80338
80245
80153
80082
80064
80055
80055
80068
80085
80115
80146
80168
80185
80207
80210
80192
80195
80236
80212
80232
80238
80255
80275
80267
80282
80272
80308
80296
80345
80334
80268
80175
80087
80046
80028
80051
80049
80068
80091
80128
80155
80153
80194
80211
80217
80220
80212
80214
80215
80225
80263
80261
80283
80280
80309
80323
80330
80362
80365
80374
80413
80389
80336
80232
80169
80140
80151
80154
80156
80181
80213
80236
80257
80265
80301
80314
80321
80327
80328
80354
80345
80363
80379
80407
80440
80437
80466
80469
80482
80508
80502
80531
80533
80560
80557
80525
80454
80397
80347
80340
80328
80347
80361
80383
80398
80416
80454
80467
80471
80463
80478
80479
80485
80492
80525
80520
80514
80515
80543
80550
80568
80570
80586
80588
80600
80597
80604
80583
80539
80479
80394
80358
80350
80372
80389
80389
80407
80435
80449
80478
80480
80507
80489
80487
80510
80494
80528
80511
80515
80517
80522
80534
80526
80541
80567
80581
80584
80564
80580
80497
80418
80349
80328
80323
80311
80319
80342
80374
80369
80409
80412
80433
80437
80410
80428
80417
80435
80438
80436
80462
80453
80459
80481
80501
80494
80517
80499
80522
80492
80421
80347
80268
80228
80221
80231
80223
80234
80257
80245
80283
80302
80304
80317
80324
80315
80327
80351
80327
80357
80368
80378
80386
80384
80399
80402
80414
80424
80428
80452
80459
80405
80333
80241
80207
80175
80165
80175
80197
80209
80251
80266
80290
80306
80328
80327
80325
80331
80338
80335
80338
80365
80353
80393
80394
80420
80428
80451
80453
80455
80476
80462
80469
80483
80473
80460
80360
80286
80234
80209
80200
80211
80236
80252
80285
80287
80325
80338
80365
80367
80366
80393
80382
80391
80415
80402
80414
80449
80461
80466
80505
80488
80506
80521
80528
80551
80540
80558
80572
80599
80586
80571
80505
80462
80395
80398
80381
80406
80401
80430
80448
80470
80471
80494
80526
80540
80528
80526
80546
80537
80558
80550
80569
80573
80579
80568
80586
80590
80581
80591
80576
80605
80599
80594
80603
80592
80530
80455
80418
80412
80431
80418
80422
80433
80474
80476
80498
80525
80532
80534
80530
80537
80519
80539
80553
80548
80553
80572
80561
80577
80577
80581
80579
80595
80576
80581
80579
80538
80467
80394
80369
80346
80334
80365
80361
80356
80374
80400
80420
80428
80430
80449
80424
80436
80448
80433
80449
80451
80449
80463
80474
80477
80485
80491
80499
80523
80510
80466
80394
80319
80276
80245
80252
80252
80243
80284
80264
80278
80300
80323
80342
80330
80344
80313
80343
80327
80340
80343
80358
80343
80359
80382
80383
80389
80385
80406
80396
80425
80439
80420
80334
80238
80166
80165
80148
80123
80158
80155
80168
80199
80215
80237
80245
80252
80230
80249
80238
80247
80254
80261
80272
80301
80279
80293
80308
80324
80347
80354
80342
80375
80376
80392
80403
80425
80432
80434
80460
80483
80507
80477
80406
80308
80267
80244
80217
80252
80237
80269
80258
80312
80320
80362
80370
80382
80399
80385
80394
80387
80400
80409
80416
80423
80430
80433
80445
80456
80480
80485
80498
80479
80508
80500
80511
80505
80533
80492
80410
80334
80291
80278
80287
80265
80300
80302
80318
80347
80371
80396
80395
80397
80400
80403
80400
80429
80398
80410
80435
80425
80435
80457
80450
80463
80490
80477
80475
80484
80505
80497
80467
80381
80331
80254
80237
80217
80241
80232
80252
80242
80268
80286
80313
80307
80314
80312
80305
80315
80294
80303
80319
80330
80319
80343
80346
80359
80346
80347
80336
80381
80360
80374
80356
80304
80222
80150
80103
80111
80096
80122
80119
80140
80168
80181
80198
80214
80237
80204
80220
80208
80231
80225
80251
80233
80245
80257
80276
80282
80312
80311
80316
80333
80330
80335
80319
80346
80338
80354
80373
80373
80387
80376
80276
80209
80111
80103
80082
80096
80078
80113
80110
80144
80171
80205
80194
80195
80203
80213
80179
80206
80214
80237
80240
80259
80261
80277
80276
80299
80302
80284
80302
80329
80344
80364
80372
80404
80430
80429
80448
80459
80507
80478
80416
80339
80261
80240
80232
80246
80245
80254
80266
80300
80300
80325
80365
80351
80334
80355
80333
80342
80324
80336
80351
80350
80350
80360
80390
80390
80415
80395
80411
80404
80411
80406
80417
80443
80454
80462
80408
80349
80267
80209
80217
80212
80201
80202
80229
80259
80250
80266
80291
80289
80302
80306
80281
80282
80302
80299
80304
80317
80321
80320
80336
80345
80325
80356
80355
80362
80363
80379
80376
80385
80389
80306
80236
80162
80138
80136
80151
80146
80134
80142
80154
80170
80200
80213
80227
80200
80215
80226
80211
80232
80220
80238
80256
80253
80268
80260
80290
80280
80291
80297
80292
80331
80315
80322
80324
80232
80151
80095
80069
80046
80059
80049
80071
80079
80069
80091
80127
80141
80160
80139
80131
80136
80122
80162
80168
80175
80193
80199
80206
80187
80200
80212
80211
80250
80250
80260
80271
80289
80306
80285
80304
80332
80348
80358
80313
80225
80129
80098
80081
80075
80075
80098
80093
80119
80136
80168
80206
80215
80235
80263
80274
80275
80270
80294
80319
80320
80322
80345
80337
80343
80366
80379
80395
80367
80383
80381
80383
80389
80402
80414
80424
80428
80423
80443
80393
80340
80232
80200
80154
80173
80141
80201
80200
80204
80221
80240
80238
80249
80257
80249
80222
80241
80256
80243
80262
80275
80283
80278
80291
80303
80320
80310
80306
80315
80334
80328
80304
80341
80327
80304
80199
80147
80078
80055
80063
80064
80058
80081
80091
80098
80109
80113
80125
80141
80135
80123
80129
80133
80130
80157
80154
80153
80176
80185
80203
80211
80203
80196
80219
80219
80254
80257
80201
80114
80061
80023
80005
79973
79979
79991
79980
80003
80023
80041
80056
80064
80070
80065
80064
80052
80053
80071
80085
80081
80082
80077
80093
80096
80116
80118
80125
80126
80136
80164
80157
80171
80177
80180
80215
80206
80118
80044
79967
79948
79930
79903
79926
79929
79948
79944
79974
79994
79998
80037
80032
80005
80037
80048
80045
80043
80037
80072
80092
80074
80099
80117
80120
80125
80130
80161
80164
80181
80201
80227
80261
80232
80253
80271
80277
80302
80291
80252
80169
80097
80027
79982
79988
80011
79989
80009
80017
80040
80055
80077
80096
80096
80096
80103
80091
80101
80098
80105
80112
80132
80129
80145
80172
80171
80156
80172
80192
80206
80213
80221
80241
80235
80256
80263
80265
80249
80168
80073
80042
80017
80010
80009
80005
80018
80024
80045
80057
80083
80084
80103
80122
80101
80095
80119
80119
80117
80155
80138
80156
80150
80158
80159
80155
80173
80188
80225
80215
80225
80245
80209
80157
80077
80015
79963
79950
79949
79966
79974
79995
79978
80003
80040
80029
80059
80041
80047
80051
80053
80044
80040
80041
80070
80090
80087
80086
80106
80108
80116
80118
80122
80135
80163
80154
80148
80163
80156
80100
80030
79960
79919
79908
79874
79912
79905
79913
79904
79925
79937
79951
79964
79972
79977
80000
79981
79980
79983
80007
80020
80006
80029
80026
80044
80053
80045
80062
80075
80094
80108
80104
80086
80125
80138
80149
80169
80165
80186
80168
80207
80231
80247
80219
80165
80076
80006
79984
79965
79966
79975
79995
79997
80015
80031
80042
80042
80072
80065
80070
80076
80068
80071
80092
80100
80078
80090
80107
80125
80129
80128
80124
80137
80159
80174
80180
80172
80192
80183
80218
80215
80229
80218
80239
80236
80224
80139
80044
80013
79962
79964
79972
79966
80001
80013
80010
80018
80029
80064
80060
80064
80053
80064
80059
80045
80068
80077
80100
80086
80101
80106
80109
80109
80133
80117
80117
80150
80153
80148
80169
80174
80191
80203
80159
80109
80020
79972
79941
79934
79927
79921
79931
79937
79944
79955
79992
80018
80010
80024
80020
80011
80006
80020
80046
80046
80072
80032
80058
80079
80079
80068
80089
80087
80107
80122
80140
80138
80154
80165
80162
80176
80186
80145
80067
79993
79935
79918
79932
79918
79899
79913
79954
79936
79961
80002
79993
80013
80006
80012
79994
79996
80002
80034
80009
80027
80065
80043
80056
80077
80073
80063
80086
80095
80114
80122
80122
80154
80178
80189
80175
80191
80186
80215
80213
80241
80221
80242
80218
80127
80044
80019
79984
79972
79999
79980
80016
80020
80038
80043
80100
80077
80093
80086
80090
80085
80089
80120
80076
80101
80105
80122
80135
80108
80127
80146
80146
80159
80168
80169
80176
80194
80202
80205
80217
80210
80207
80235
80235
80264
80227
80169
80086
80033
79983
79967
79963
79998
79984
79991
79992
80012
80016
80034
80043
80039
80047
80023
80014
80015
80046
80046
80052
80058
80057
80078
80085
80075
80087
80089
80092
80104
80118
80121
80114
80145
80124
80145
80129
80115
80048
79981
79923
79884
79887
79878
79877
79908
79884
79898
79905
79931
79954
79959
79964
79951
79943
79925
79950
79977
79957
79965
79960
79963
79989
80004
79992
79998
80008
80022
80018
80036
80052
80050
80063
80060
80087
80105
80097
80114
80130
80147
80055
79973
79910
79846
79820
79828
79814
79815
79842
79865
79855
79874
79887
79906
79930
79903
79926
79918
79908
79910
79928
79928
79935
79949
79959
79978
79984
79975
80026
80029
80042
80030
80049
80085
80080
80091
80106
80119
80127
80147
80167
80199
80209
80232
80233
80232
80251
80287
80211
80158
80060
80011
79977
79985
79997
79977
79988
79988
79996
80015
80039
80066
80083
80074
80064
80077
80068
80061
80079
80068
80089
80079
80098
80110
80106
80117
80118
80135
80136
80127
80153
80171
80169
80190
80184
80180
80219
80215
80214
80222
80135
80039
79982
79942
79947
79932
79955
79949
79958
79958
79979
80010
80002
80015
80048
80030
80024
80023
80019
80031
80035
80048
80050
80040
80074
80082
80075
80083
80090
80093
80120
80118
80136
80135
80135
80157
80159
80180
80104
80044
79960
79925
79929
79921
79899
79890
79913
79898
79925
79931
79952
79963
79980
79971
79967
79965
79972
79990
79996
79982
80032
80007
80010
80024
80032
80052
80057
80048
80066
80073
80065
80091
80101
80117
80129
80133
80140
80134
80173
80186
80197
80196
80213
80217
80216
80185
80085
80019
79945
79941
79927
79932
79934
79936
79951
79964
79972
80006
80022
80032
80052
80024
80022
80049
80038
80052
80038
80050
80089
80112
80102
80095
80106
80119
80137
80155
80141
80162
80169
80168
80160
80200
80210
80195
80213
80231
80234
80241
80247
80246
80265
80292
80276
80235
80153
80082
80029
80024
80015
80013
80034
80034
80044
80050
80058
80069
80063
80075
80060
80073
80062
80059
80045
80052
80055
80059
80053
80064
80063
80066
80085
80105
80094
80093
80116
80135
80122
80141
80149
80152
80169
80164
80171
80180
80156
80105
80016
79949
79930
79900
79904
79919
79910
79918
79933
79937
79960
79977
79983
79995
79992
79979
79964
79970
79983
79976
80012
79985
79997
80004
80031
80048
80036
80042
80062
80067
80071
80080
80092
80104
80121
80102
80107
80124
80139
80160
80162
80173
80205
80200
80128
80044
79951
79931
79907
79896
79894
79909
79875
79924
79917
79945
79955
79974
79990
79979
80029
80007
79996
79991
80012
80019
80027
80023
80031
80052
80054
80078
80075
80080
80091
80104
80137
80141
80162
80189
80177
80218
80210
80234
80239
80262
80278
80261
80325
80309
80318
80266
80206
80126
80081
80055
80040
80055
80081
80047
80062
80071
80092
80099
80114
80145
80125
80113
80143
80127
80133
80137
80148
80138
80151
80159
80161
80165
80177
80195
80200
80200
80214
80215
80228
80247
80247
80258
80281
80271
80261
80289
80268
80257
80172
80073
80050
80041
80041
80026
80026
80020
80040
80054
80067
80073
80089
80094
80099
80078
80109
80085
80067
80083
80084
80091
80103
80097
80099
80109
80122
80131
80129
80130
80147
80142
80167
80177
80191
80178
80182
80208
80156
80066
79994
79968
79949
79942
79925
79919
79942
79942
79962
79941
79962
79992
79994
79998
79990
80000
80004
79980
79989
79982
80004
80002
80002
80013
80033
80048
80062
80054
80047
80053
80053
80084
80090
80111
80120
80113
80117
80140
80157
80178
80165
80171
80069
79978
79933
79896
79882
79863
79871
79870
79875
79887
79887
79914
79949
79942
79962
79966
79966
80004
79992
79994
79994
80012
80017
80036
80033
80051
80058
80068
80099
80089
80103
80117
80141
80141
80195
80193
80195
80204
80208
80187
80178
80181
80167
80197
80204
80205
80170
80095
80018
79949
79936
79919
79908
79957
79960
79966
79966
79980
79977
80016
80024
80044
80032
80032
80037
80014
80038
80055
80046
80049
80063
80058
80056
80062
80079
80070
80083
80086
80099
80123
80116
80121
80143
80145
80176
80168
80190
80201
80200
80177
80105
79987
79960
79923
79919
79905
79920
79939
79939
79931
79938
79979
79982
79994
80025
80008
80020
80008
79985
79995
80020
80014
80032
80026
80050
80029
80059
80049
80080
80079
80114
80123
80108
80135
80113
80135
80151
80141
80180
80184
80194
80186
80115
80037
79985
79909
79917
79915
79914
79930
79924
79949
79940
79952
79971
79979
79984
80008
79997
80000
79994
80004
80006
80018
80019
80040
80045
80047
80057
80088
80090
80120
80128
80122
80136
80163
80171
80162
80192
80215
80222
80227
80221
80250
80283
80281
80267
80298
80311
80313
80274
80156
80109
80065
80056
80028
80036
80063
80049
80064
80076
80124
80130
80142
80140
80152
80151
80154
80154
80151
80148
80146
80180
80182
80196
80188
80184
80206
80224
80229
80244
80247
80258
80274
80235
80281
80278
80281
80300
80317
80300
80301
80295
80303
80307
80303
80268
80175
80084
80052
80012
80000
80009
80033
80035
80044
80055
80062
80067
80107
80100
80101
80090
80085
80096
80083
80097
80103
80096
80090
80122
80117
80131
80145
80135
80143
80149
80175
80183
