78231
78258
78283
78270
78271
78267
78270
78258
78262
78265
78258
78260
78276
78292
78293
78319
78334
78336
78369
78329
78218
78091
78028
77980
77957
77964
77944
77949
77954
77947
77943
77938
77957
77950
77905
77883
77858
77843
77816
77807
77800
77798
77774
77783
77768
77762
77777
77799
77789
77820
77810
77834
77826
77838
77841
77835
77857
77886
77913
77911
77942
77912
77779
77626
77495
77414
77373
77329
77329
77308
77315
77365
77367
77410
77430
77430
77418
77436
77430
77441
77426
77456
77430
77461
77465
77467
77462
77479
77475
77496
77476
77497
77508
77518
77514
77559
77595
77608
77654
77690
77699
77702
77691
77663
77672
77647
77535
77386
77274
77217
77181
77223
77209
77213
77210
77217
77263
77311
77314
77348
77340
77334
77327
77318
77340
77318
77319
77333
77327
77307
77309
77297
77305
77312
77318
77353
77361
77403
77447
77466
77507
77570
77585
77632
77683
77741
77791
77841
77847
77842
77767
77661
77604
77565
77563
77569
77580
77616
77637
77678
77719
77760
77813
77860
77889
77903
77936
77919
77932
77940
77978
78009
78017
78067
78108
78135
78167
78201
78207
78208
78215
78212
78193
78238
78265
78274
78285
78286
78289
78297
78310
78261
78182
78052
77961
77906
77904
77873
77857
77881
77871
77882
77906
77941
77981
78013
78049
78037
78032
78023
78001
77991
77977
77973
77961
77970
77956
77950
77968
77962
77956
77930
77893
77840
77842
77801
77816
77786
77775
77713
77670
77569
77453
77272
77122
77006
76946
76876
76785
76730
76700
76657
76690
76742
76803
76827
76850
76885
76888
76874
76861
76845
76815
76808
76795
76794
76792
76818
76792
76781
76767
76786
76770
76771
76774
76739
76718
76699
76660
76549
76406
76297
76221
76164
76151
76116
76120
76142
76162
76153
76187
76180
76168
76124
76090
76030
76010
75970
75923
75872
75862
75820
75785
75729
75679
75614
75580
75536
75545
75546
75538
75489
75387
75218
75093
75023
74985
74953
74921
74911
74948
74952
74975
75019
75073
75065
75103
75083
75061
75060
75057
75077
75085
75098
75086
75123
75139
75147
75157
75192
75181
75193
75184
75161
75045
74895
74789
74744
74721
74698
74714
74706
74699
74683
74698
74701
74706
74727
74703
74704
74682
74652
74650
74678
74658
74696
74719
74732
74754
74779
74781
74775
74823
74835
74852
74854
74753
74617
74530
74468
74447
74426
74445
74446
74455
74463
74492
74525
74561
74593
74616
74603
74599
74591
74606
74627
74644
74645
74664
74668
74686
74703
74712
74714
74731
74741
74738
74760
74746
74776
74789
74796
74810
74812
74826
74823
74810
74833
74812
74690
74525
74420
74346
74308
74299
74328
74338
74360
74381
74405
74426
74452
74490
74469
74476
74451
74425
74421
74449
74457
74451
74481
74482
74511
74513
74517
74534
74545
74551
74570
74600
74610
74624
74644
74649
74643
74669
74707
74722
74726
74737
74749
74744
74724
74612
74450
74340
74287
74241
74238
74244
74272
74287
74320
74328
74362
74385
74407
74431
74431
74451
74447
74457
74500
74534
74533
74579
74636
74708
74781
74849
74938
75032
75124
75213
75288
75359
75470
75561
75615
75693
75767
75872
75957
76072
76053
76080
76093
76105
76062
75941
75790
75700
75644
75619
75680
75698
75794
75885
75961
76082
76143
76249
76329
76389
76445
76491
76537
76580
76632
76685
76746
76794
76854
76914
76955
77061
77112
77164
77233
77287
77320
77364
77411
77486
77510
77566
77591
77648
77655
77655
77692
77698
77642
77564
77392
77293
77193
77129
77068
77001
76947
76922
76883
76840
76846
76824
76850
76843
76790
76748
76673
76634
76587
76565
76538
76474
76431
76403
76379
76324
76308
76277
76276
76286
76277
76246
76224
76189
76170
76140
76151
76133
76133
76092
75958
75811
75681
75584
75533
75505
75486
75464
75466
75499
75529
75557
75602
75697
75742
75743
75755
75739
75767
75803
75860
75910
75937
75968
76015
76052
76098
76130
76204
76299
76400
76498
76579
76688
76738
76801
76883
76972
77100
77108
76999
76806
76661
76569
76459
76395
76299
76208
76122
76049
75982
75944
75918
75851
75780
75692
75646
75553
75483
75436
75396
75325
75295
75281
75281
75255
75219
75200
75180
75158
75208
75259
75344
75389
75422
75582
75761
75834
75826
75800
75768
75767
75759
75819
75751
75697
75656
75661
75735
75791
75759
75658
75512
75292
75198
75102
75030
74923
74915
75039
75465
75035
74854
74596
74481
74371
74282
74205
74155
74136
74096
73990
73826
73691
73553
73499
73475
73484
73483
73492
73506
73526
73534
73566
73564
73580
73542
73525
73522
73538
73545
73563
73597
73619
73647
73677
73727
73749
73805
73812
73860
73874
73901
73887
73769
73605
73476
73445
73418
73404
73422
73446
73447
73473
73507
73526
73569
73616
73625
73631
73602
73607
73607
73650
73656
73660
73667
73705
73712
73717
73734
73757
73777
73776
73788
73820
73761
73613
73493
73396
73355
73333
73348
73348
73366
73380
73395
73434
73459
73494
73529
73517
73499
73523
73507
73506
73546
73573
73595
73605
73614
73648
73664
73663
73695
73736
73785
73788
73808
73830
73857
73824
73684
73563
73489
73443
73453
73461
73477
73500
73508
73537
73575
73580
73634
73684
73675
73690
73695
73698
73720
73744
73756
73782
73808
73840
73865
73883
73891
73910
73948
73994
74014
74034
74061
74077
74120
74123
74156
74184
74198
74222
74243
74262
74289
74296
74310
74341
74249
74118
73978
73899
73857
73843
73871
73880
73901
73916
73942
73968
74014
74049
74067
74099
74078
74111
74078
74106
74117
74137
74154
74174
74209
74228
74254
74261
74295
74318
74307
74358
74377
74398
74437
74467
74486
74523
74546
74572
74611
74636
74653
74686
74708
74731
74745
74712
74579
74445
74357
74325
74332
74349
74374
74398
74431
74466
74496
74550
74610
74658
74664
74692
74695
74708
74719
74745
74771
74801
74825
74854
74874
74896
74926
74979
74988
75013
75059
75066
75107
75111
75143
75201
75211
75242
75270
75291
75298
75334
75363
75385
75364
75299
75159
75065
74999
74995
74980
74992
75026
75045
75141
75213
75339
75466
75583
75646
75744
75815
75914
75952
75951
75866
75818
75738
75673
75602
75537
75392
75252
75249
75748
77026
77171
77098
77022
76963
76933
76859
76809
76773
76760
76774
76670
76517
76401
76339
76296
76270
76277
76260
76276
76280
76272
76298
76305
76340
76367
76356
76338
76326
76331
76310
76308
76323
76325
76312
76342
76353
76362
76355
76368
76380
76404
76417
76443
76471
76475
76501
76504
76523
76541
76547
76580
76561
76470
76386
76356
76366
76365
76398
76443
76485
76499
76527
76573
76611
76642
76664
76666
76677
76682
76702
76723
76753
76765
76799
76793
76820
76847
76854
76859
76895
76911
76927
76951
76963
76996
77027
77038
77042
77010
76954
76828
76752
76737
76728
76733
76757
76781
76819
76851
76874
76901
76940
76987
76987
76985
76979
76997
76983
77008
76997
77024
77041
77054
77062
77098
77110
77121
77140
77146
77162
77174
77167
77186
77158
77076
76974
76886
76857
76850
76843
76880
76876
76913
76928
76943
76978
77022
77070
77092
77099
77090
77116
77113
77143
77150
77179
77177
77152
77134
77103
77062
77035
76996
76978
76988
76985
76988
76926
76787
76689
76612
76558
76545
76599
76601
76596
76621
76647
76644
76674
76711
76722
76734
76726
76677
76666
76653
76685
76756
76868
76974
76997
77012
70322
77025
77027
77016
77001
76977
76975
76949
76970
76902
76786
76700
76685
76699
76732
76764
76805
76869
76911
76982
77025
77080
77169
77238
77310
77394
77454
77502
77512
77553
77599
77591
77373
77139
77102
77183
77259
77263
77258
77245
77286
77480
77787
77942
78025
78005
77964
77982
78088
78182
78260
78310
78344
78480
78596
78629
78620
78458
78273
78181
77989
77804
77503
77522
77646
77569
77483
77418
77296
77080
76985
77157
77542
77786
77970
78093
78116
78121
78029
77927
77896
77913
77940
78033
78060
78112
78144
78146
78133
78154
78205
78211
78215
78178
78169
78131
78079
78046
78006
77960
77924
77922
77887
77877
77878
77833
77811
77759
77692
77636
77637
77620
77589
77451
77299
77120
76974
76753
76606
76399
76290
76225
76214
76198
76233
76229
76267
76302
76306
76307
76319
76318
76278
76138
75980
75865
75834
75824
75806
75826
75817
75843
75843
75851
75838
75836
75833
75833
75829
75825
75877
75897
75931
75956
75972
76004
76075
76122
76139
76210
76268
76307
76353
76415
76440
76496
76546
76583
76613
76658
76677
76709
76726
76738
76754
76778
76775
76818
76863
76856
76844
76776
76666
76589
76566
76544
76573
76563
76589
76631
76670
76694
76727
76765
76808
76827
76867
76865
76851
76863
76883
76889
76914
76933
76959
76963
76981
76977
76954
76971
76944
76941
76927
76930
76911
76889
76881
76855
76873
76901
76897
76888
76926
76932
76943
76946
76892
76831
76739
76695
76681
76683
76703
76731
76750
76765
76807
76842
76866
76920
76946
76967
76981
76987
76988
76993
77005
77018
77039
77054
77084
77073
77118
77117
77133
77157
77163
77180
77202
77208
77244
77244
77243
77261
77273
77275
77303
77302
77233
77161
77100
77069
77058
77061
77089
77118
77140
77176
77184
77243
77261
77289
77331
77337
77367
77341
77365
77365
77371
77403
77389
77407
77413
77433
77438
77454
77453
77450
77463
77469
77471
77504
77520
77515
77520
77479
77405
77316
77295
77285
77262
77260
77280
77306
77311
77332
77367
77359
77388
77416
77405
77434
77428
77441
77461
77483
77512
77539
77558
77561
77579
77583
77597
77612
77625
77644
77636
77661
77652
77611
77523
77456
77417
77408
77392
77408
77410
77434
77432
77449
77470
77497
77509
77528
77524
77506
77496
77492
77502
77515
77523
77529
77545
77535
77557
77582
77579
77598
77598
77612
77631
77641
77616
77545
77483
77413
77349
77361
77366
77343
77351
77369
77383
77408
77415
77444
77470
77460
77469
77449
77455
77465
77473
77473
77488
77483
77496
77509
77508
77514
77526
77539
77561
77566
77558
77565
77585
77608
77619
77645
77658
77673
77675
77608
77497
77424
77382
77346
77343
77346
77349
77376
77374
77404
77413
77427
77443
77460
77454
77463
77448
77464
77454
77457
77471
77494
77498
77500
77521
77497
77533
77523
77539
77540
77570
77567
77584
77579
77596
77623
77619
77629
77653
77658
77675
77692
77686
77697
77710
77720
77731
77671
77592
77499
77440
77398
77383
77388
77374
77388
77414
77427
77435
77441
77474
77479
77486
77498
77512
77493
77495
77508
77504
77496
77510
77528
77558
77547
77542
77563
77583
77580
77606
77614
77621
77646
77662
77682
77684
77704
77718
77723
77744
77756
77773
77783
77774
77785
77807
77821
77746
77655
77568
77513
77504
77472
77498
77492
77519
77530
77525
77544
77574
77592
77623
77632
77622
77619
77613
77593
77599
77611
77629
77635
77641
77657
77668
77695
77688
77705
77716
77728
77755
77745
77764
77789
77789
77816
77827
77845
77853
77876
77885
77887
77905
77913
77916
77861
77762
77668
77621
77625
77611
77601
77621
77630
77628
77667
77668
77705
77716
77742
77747
77756
77738
77743
77731
77736
77739
77751
77760
77763
77790
77795
77804
77822
77813
77830
77845
77859
77876
77893
77896
77898
77917
77918
77986
77955
77865
77775
77736
77680
77649
77659
77652
77673
77674
77717
77702
77738
77750
77776
77788
77795
77767
77784
77789
77774
77778
77780
77780
77809
77812
77817
77822
77831
77845
77857
77868
77878
77884
77896
77915
77923
77928
77938
77896
77811
77728
77678
77655
77654
77674
77689
77667
77702
77725
77735
77757
77796
77798
77800
77795
77785
77794
77798
77791
77800
77825
77821
77839
77837
77850
77856
77877
77874
77905
77904
77920
77924
77940
77918
77837
77760
77703
77684
77678
77693
77701
77702
77705
77755
77761
77796
77805
77831
77830
77834
77839
77842
77819
77827
77830
77846
77864
77859
77882
77896
77911
77925
77938
77935
77950
77958
77935
77857
77778
77717
77691
77674
77680
77700
77701
77710
77698
77723
77737
77774
77792
77808
77800
77816
77804
77791
77813
77831
77821
77842
77854
77842
77863
77859
77881
77889
77889
77893
77890
77935
77925
77872
77774
77707
77671
77664
77689
77689
77699
77704
77725
77725
77750
77769
77784
77817
77813
77809
77772
77796
77794
77836
77845
77855
77849
77866
77863
77858
77870
77880
77882
77897
77908
77907
77907
77931
77948
77961
77984
77984
77982
77891
77796
77710
77706
77715
77715
77710
77708
77738
77734
77748
77767
77805
77806
77813
77819
77805
77794
77789
77820
77805
77809
77809
77822
77840
77858
77863
77860
77896
77878
77897
77900
77926
77940
77959
77962
77974
77983
78015
77999
78025
78029
78047
78039
78063
78062
78065
78066
78067
78027
77948
77836
77778
77772
77766
77749
77762
77772
77789
77791
77794
77826
77820
77852
77844
77853
77849
77836
77850
77843
77852
77855
77872
77883
77878
77907
77898
77927
77921
77947
77926
77971
77987
77988
77985
77999
78017
78019
78042
78051
78050
78047
78053
78052
78064
78056
78083
78078
78061
78019
77941
77852
77803
77801
77788
77773
77783
77785
77783
77795
77813
77823
77845
77859
77861
77874
77846
77831
77857
77826
77833
77860
77864
77878
77867
77896
77891
77898
77930
77927
77928
77948
77961
77970
77977
77984
77990
78011
78021
78023
78026
78048
78044
78046
78048
78062
78098
78087
78036
77960
77866
77822
77800
77776
77787
77792
77795
77828
77820
77837
77851
77881
77917
77927
77918
77913
77911
77902
77890
77918
77927
77946
77940
77958
77964
77973
78004
78016
78030
78031
78044
78025
78045
78068
78075
78086
78090
78087
78114
78113
78135
78122
78126
78125
78093
78038
77945
77887
77859
77856
77842
77837
77860
77870
77872
77892
77900
77915
77934
77949
77947
77959
77942
77943
77934
77949
77937
77968
77977
77984
77989
77997
78005
78009
78028
78038
78043
78036
78066
78060
78096
78063
78107
78109
78114
78088
77995
77924
77886
77846
77866
77870
77860
77872
77874
77881
77871
77928
77933
77946
77931
77935
77948
77939
77929
77945
77940
77948
77956
77959
77967
77991
77987
77995
78024
78020
78023
78034
78020
78011
78046
78054
78040
77998
77926
77852
77832
77811
77823
77840
77828
77874
77858
77870
77894
77914
77932
77940
77918
77921
77916
77925
77918
77935
77931
77956
77963
77959
77990
77965
77966
77989
77997
77999
78014
78037
78044
78025
77927
77853
77819
77786
77798
77792
77810
77807
77843
77834
77849
77891
77898
77907
77939
77929
77935
77905
77934
77921
77967
77960
77969
77993
77996
78016
78026
78039
78047
78077
78070
78088
78116
78105
78064
77979
77929
77888
77880
77879
77924
77903
77930
77926
77939
77953
77983
78005
78017
78011
78002
77999
77992
78014
78010
78031
78017
78020
78032
78060
78074
78053
78061
78060
78078
78092
78097
78103
78096
78112
78113
78125
78132
78156
78114
78013
77945
77879
77890
77894
77898
77886
77892
77906
77923
77919
77962
77962
77989
77981
77975
77976
77970
77979
77982
77977
77981
77990
77985
78017
78016
78020
78026
78025
78043
78058
78072
78091
78104
78114
78144
78140
78158
78158
78169
78166
78196
78188
78213
78203
78232
78227
78224
78240
78248
78208
78153
78062
78017
77976
77948
77966
77965
77969
77990
78003
78005
78004
78029
78064
78062
78086
78070
78080
78078
78083
78099
78105
78122
78123
78126
78132
78149
78172
78171
78158
78165
78177
78200
78202
78217
78207
78216
78248
78249
78263
78252
78291
78274
78281
78296
78300
78297
78330
78322
78276
78212
78134
78109
78096
78083
78094
78115
78105
78139
78129
78139
78161
78170
78208
78203
78225
78222
78215
78226
78213
78219
78235
78233
78235
78245
78261
78263
78260
78288
78301
78299
78305
78310
78304
78334
78343
78347
78355
78372
78360
78395
78379
78372
78389
78410
78402
78400
78347
78273
78223
78190
78185
78191
78175
78203
78214
78211
78214
78232
78258
78275
78277
78306
78286
78294
78273
78281
78272
78273
78279
78299
78303
78307
78315
78318
78337
78369
78352
78351
78360
78355
78372
78375
78375
78408
78400
78401
78421
