75227
75214
75221
75270
75301
75318
75338
75334
75244
75140
75024
74962
74973
74970
74981
75016
75023
75063
75086
75119
75126
75131
75124
75125
75125
75137
75138
75163
75161
75157
75161
75177
75171
75214
75210
75206
75224
75237
75195
75081
74980
74891
74856
74855
74860
74875
74864
74890
74910
74948
74971
74961
74964
74949
74964
74946
74934
74958
74978
74987
75023
52335
52324
52344
52334
52365
52359
52370
52374
52442
52615
52684
52758
52766
52757
52770
52770
52767
52762
52721
52717
52706
52716
52711
52719
52740
52737
52743
52738
52737
52723
52732
52718
74863
74876
74912
74906
74925
74953
74962
74934
74813
74695
74644
74610
74596
74631
74637
74656
74656
74707
52945
52903
52841
52828
52804
52780
52719
52676
52639
52602
52572
52538
52493
52455
52426
52404
52361
52267
52189
52161
52152
52181
52259
52327
52341
52339
52321
52300
52262
52236
52222
52217
74967
74971
74957
74963
74959
74977
74966
74982
75000
75008
75029
75015
75040
75046
75076
75094
75138
51720
51657
51643
51733
51766
51762
51743
51703
51679
51622
51558
51514
51455
51392
51356
51347
51343
51321
51305
51259
51208
51114
51057
50999
50947
50888
50851
50791
50728
50682
50680
50736
75150
75052
74999
75006
74974
74973
74979
74980
74990
74987
74988
74965
74954
74932
74913
74877
74879
74875
74893
74890
74908
74920
74961
74988
75008
74903
74827
74752
74737
74721
74766
74811
74863
74825
74798
74794
74796
74810
74848
74855
74861
74880
74921
74911
74902
74923
74943
74950
74976
74979
74964
74885
74760
74700
74633
74601
74578
74582
74555
74556
74572
74575
74588
74570
74557
74538
74528
74508
74488
74485
74477
74479
74494
74501
74496
74511
74488
74385
74290
74237
74189
74154
74169
74167
74187
74194
74211
74244
74233
74234
74223
74222
74210
74214
74196
74193
74192
74201
74207
74213
74193
74212
74221
74219
74217
74194
74187
74171
74140
74050
73889
73765
73721
73661
73633
73559
73506
73452
73357
73305
73210
73097
73031
72962
72920
72891
72919
72956
73001
73077
73133
73201
73252
73326
73384
73432
73456
73490
73537
73554
73573
73592
73612
73508
73382
73297
73284
73307
73352
73370
73406
73438
73477
73522
73569
73605
73633
73650
73656
73687
73738
73787
73843
73936
73987
74061
74102
74152
74207
74215
74278
74312
74353
74409
74369
74261
74130
74051
74024
74033
74085
74123
74197
74267
74304
74369
74415
74454
74497
74511
74532
74559
74619
74659
74699
74746
74778
74805
74863
74892
74916
74952
74935
74850
74715
74610
74562
74531
74528
74549
74587
74617
74655
74709
74786
74833
74891
74927
74963
74979
74995
75017
75049
75076
75080
75124
75159
75219
75262
75308
75333
75271
75168
75058
75004
74981
74996
75035
75057
75098
75151
75206
75237
75283
75303
75320
75328
75360
75389
75414
75437
75443
75477
75522
75583
75608
75658
75702
75676
75605
75487
75424
75388
75376
75382
75382
75427
75435
75467
75507
75531
75526
75504
75482
75479
75456
75431
75445
75447
75437
75429
75450
75453
75458
75378
75266
75190
75121
75082
75080
75084
75073
75101
75110
75128
75174
75171
75222
75234
75227
75231
75240
75249
75258
75281
75291
75332
75333
75352
75337
75242
75130
75029
74973
74965
74955
74951
74957
74957
74993
74998
75003
75020
75010
75013
74997
74998
74994
74984
75011
75024
75037
75045
75043
75028
74940
74812
74684
74623
74586
74577
74566
74574
74595
74589
74632
74644
74659
74648
74652
74625
74632
74606
74596
74630
74614
74637
74656
74667
74637
74564
74440
74355
74317
74267
74282
74270
74253
74274
74283
74292
74309
74281
74305
74259
74259
74252
74243
74244
74255
74241
74264
74268
74266
74199
74098
73985
73939
73898
73909
73914
73920
73951
73998
74063
74123
74135
74154
74167
74154
74179
74170
74200
74229
74286
74311
74336
74398
74401
74348
74261
74184
74168
74181
74223
74253
74300
74343
74413
74469
74510
74567
74603
74640
74644
74658
74693
74732
74752
74797
74802
74849
74862
74825
74754
74695
74666
74696
74733
74774
74844
74894
74949
75000
75075
75113
75133
75157
75129
75150
75173
75182
75185
75225
75266
75260
75240
75132
75067
74992
74956
74984
75002
75018
75056
75079
75132
75135
75147
75130
75122
75093
75091
75125
75122
75153
75167
75198
75239
75269
75223
75154
75070
75040
75055
75077
75092
75110
75164
75198
75225
75260
75258
75245
75233
75238
75248
75258
75236
75251
75215
75180
75079
74931
74752
74657
74643
74656
74695
74730
74794
74878
74954
75042
74987
74889
74795
74754
74750
74747
74762
74784
74803
74793
74784
74762
74693
74594
74535
74528
74578
74681
74832
74901
74959
75007
75085
75112
75034
74959
74873
74857
74860
74859
74872
74824
74816
74809
74840
74892
74911
74919
74931
74971
74985
75024
74991
74934
74872
74859
74870
74883
74869
74839
74780
74746
74722
74714
74718
74739
74764
74826
74876
74962
75026
75032
74864
74733
74636
74584
74572
74586
74596
74610
74572
74517
74450
74389
74418
74481
74551
74645
74745
74842
74906
75000
75000
74918
74702
74522
74399
74365
74315
74299
74276
74290
74284
74276
74248
74245
74274
74302
74311
74318
74319
74303
74258
74210
74158
74072
73964
73756
73611
73488
73434
73354
73291
73248
73235
73235
73249
73289
73263
73252
73202
73145
73152
73165
73201
73258
73304
73391
73478
73565
73628
73610
73512
73447
73412
73442
73440
73484
73485
73444
73402
73408
73437
73467
73479
73356
73297
73276
73255
73239
73238
73229
73214
73244
73250
73276
73265
73195
73041
72980
72915
72908
72928
72947
72999
73090
73123
73145
73135
73135
73133
73132
73142
73170
73193
73222
73253
73269
73298
73337
73374
73395
73414
73450
73474
73552
73582
73626
73635
73649
73663
73657
73594
73458
73378
73332
73349
73357
73338
73338
73370
73413
73443
73529
73541
73559
73551
73585
73622
73668
73676
73736
73772
73808
73811
73832
73847
73873
73948
74071
74120
74138
74046
73900
73761
73669
73577
73418
73283
73348
73631
73863
74004
74092
74287
74526
75052
75703
76203
76226
74924
78349
79933
79919
79717
79120
79539
79881
80141
80173
80171
80207
80251
80271
80265
80205
79938
79652
79344
79462
78652
78536
79042
78943
79271
79003
78490
78467
78618
78614
78578
78748
78907
79096
79116
78914
79858
79835
79831
79245
79062
79105
79059
78878
78797
78368
77898
77374
77116
77277
75473
75293
75777
76180
76400
76380
76356
76336
76350
76353
76354
76388
76512
76334
76886
77615
77982
78243
78588
78553
78216
78407
78771
79283
79606
78396
79168
79372
76398
70629
72523
71783
71759
72155
72639
72917
73091
73213
73258
73297
73223
73345
73269
73491
73788
73991
74139
74228
74226
74311
74367
74414
74570
74959
75378
75458
75984
76529
76297
74298
76583
77246
77593
77797
77946
78028
78133
78466
78928
78940
78782
78880
78821
73817
75078
75385
75340
75320
75369
75499
75706
76282
76727
77047
77314
77439
77536
77666
77712
77777
77741
77690
77655
77650
77596
77573
77540
77532
77494
77453
77426
77415
77418
77438
77434
77375
77275
77186
77145
77154
77165
77209
77236
77243
77284
77313
77354
77392
77435
77450
77476
77481
77517
77537
77587
77630
77686
77719
77785
77841
77891
77870
77700
77402
76952
76961
77240
77229
77027
76898
76797
76767
76827
76871
76980
77174
77366
77336
77208
77030
76809
76378
75925
75671
75488
75472
75491
75441
75415
75356
75332
75297
75279
75339
75386
75402
75417
75489
75577
75720
75862
75997
76157
76318
76468
76563
76525
76442
76398
76423
76536
76590
76708
76790
76919
77028
77132
77278
77383
77476
77487
77558
77616
77660
77707
77709
77756
77784
77825
77863
77878
77893
77909
77932
77984
78000
78012
78058
78130
78179
78204
78232
78256
78285
78319
78349
78406
78395
78369
78351
78313
78213
78095
78055
78097
78083
78136
78190
78271
78343
78395
78393
78449
78473
78514
78582
78618
78660
78705
78721
78763
78776
78810
78840
78854
78889
78916
78952
78957
78958
78942
78924
78971
78982
78997
79037
79085
79082
79127
79148
79169
79204
79226
79184
79083
78994
78950
78919
78905
78925
78921
78954
78951
78983
78995
79007
79003
79035
79001
78971
78969
78966
78962
78954
78957
78960
78967
78951
78981
78991
78993
79013
79018
79024
79055
79044
79096
79114
79102
79093
79021
78932
78840
78802
78779
78769
78776
78785
78803
78807
78822
78850
78849
78849
78849
78863
78833
78800
78804
78821
78813
78793
78790
78796
78813
78802
78818
78804
78803
78823
78823
78811
78780
78710
78591
78535
78487
78475
78468
78469
78466
78484
78460
78484
78503
78528
78524
78510
78527
78518
78506
78500
78503
78514
78522
78538
78529
78524
78509
78513
78539
78538
78526
78452
78361
78264
78186
78161
78118
78112
78120
78127
78140
78154
78196
78195
78208
78195
78169
78166
78149
78154
78156
78182
78187
78195
78194
78215
78218
78232
78242
78235
78117
77996
77890
77840
77840
77881
77967
78055
78100
78148
78177
78231
78258
78283
78270
78271
78267
78270
78258
78262
78265
78258
78260
78276
78292
78293
78319
78334
78336
78369
78329
78218
78091
78028
77980
77957
77964
77944
77949
77954
77947
77943
77938
77957
77950
77905
77883
77858
77843
77816
77807
77800
77798
77774
77783
77768
77762
77777
77799
77789
77820
77810
77834
77826
77838
77841
77835
77857
77886
77913
77911
77942
77912
77779
77626
77495
77414
77373
77329
77329
77308
77315
77365
77367
77410
77430
77430
77418
77436
77430
77441
77426
77456
77430
77461
77465
77467
77462
77479
77475
77496
77476
77497
77508
77518
77514
77559
77595
77608
77654
77690
77699
77702
77691
77663
77672
77647
77535
77386
77274
77217
77181
77223
77209
77213
77210
77217
77263
77311
77314
77348
77340
77334
77327
77318
77340
77318
77319
77333
77327
77307
77309
77297
77305
77312
77318
77353
77361
77403
77447
77466
77507
77570
77585
77632
77683
77741
77791
77841
77847
77842
77767
77661
77604
77565
77563
77569
77580
77616
77637
77678
77719
77760
77813
77860
77889
77903
77936
77919
77932
77940
77978
78009
78017
78067
78108
78135
78167
78201
78207
78208
78215
78212
78193
78238
78265
78274
78285
78286
78289
78297
78310
78261
78182
78052
77961
77906
77904
77873
77857
77881
77871
77882
77906
77941
77981
78013
78049
78037
78032
78023
78001
77991
77977
77973
77961
77970
77956
77950
77968
77962
77956
77930
77893
77840
77842
77801
77816
77786
77775
77713
77670
77569
77453
77272
77122
77006
76946
76876
76785
76730
76700
76657
76690
76742
76803
76827
76850
76885
76888
76874
76861
76845
76815
76808
76795
76794
76792
76818
76792
76781
76767
76786
76770
76771
76774
76739
76718
76699
76660
76549
76406
76297
76221
76164
76151
76116
76120
76142
76162
76153
76187
76180
76168
76124
76090
76030
76010
75970
75923
75872
75862
75820
75785
75729
75679
75614
75580
75536
75545
75546
75538
75489
75387
75218
75093
75023
74985
74953
74921
74911
74948
74952
74975
75019
75073
75065
75103
75083
75061
75060
75057
75077
75085
75098
75086
75123
75139
75147
75157
75192
75181
75193
75184
75161
75045
74895
74789
74744
74721
74698
74714
74706
74699
74683
74698
74701
74706
74727
74703
74704
74682
74652
74650
74678
74658
74696
74719
74732
74754
74779
74781
74775
74823
74835
74852
74854
74753
74617
74530
74468
74447
74426
74445
74446
74455
74463
74492
74525
74561
74593
74616
74603
74599
74591
74606
74627
74644
74645
74664
74668
74686
74703
74712
74714
74731
74741
74738
74760
74746
74776
74789
74796
74810
74812
74826
74823
74810
74833
74812
74690
74525
74420
74346
74308
74299
74328
74338
74360
74381
74405
74426
74452
74490
74469
74476
74451
74425
74421
74449
74457
74451
74481
74482
74511
74513
74517
74534
74545
74551
74570
74600
74610
74624
74644
74649
74643
74669
74707
74722
74726
74737
74749
74744
74724
74612
74450
74340
74287
74241
74238
74244
74272
74287
74320
74328
74362
74385
74407
74431
74431
74451
74447
74457
74500
74534
74533
74579
74636
74708
74781
74849
74938
75032
75124
75213
75288
75359
75470
75561
75615
75693
75767
75872
75957
76072
76053
76080
76093
76105
76062
75941
75790
75700
75644
75619
75680
75698
75794
75885
75961
76082
76143
76249
76329
76389
76445
76491
76537
76580
76632
76685
76746
76794
76854
76914
76955
77061
77112
77164
77233
77287
77320
77364
77411
77486
77510
77566
77591
77648
77655
77655
77692
77698
77642
77564
77392
77293
77193
77129
77068
77001
76947
76922
76883
76840
76846
76824
76850
76843
76790
76748
76673
76634
76587
76565
76538
76474
76431
76403
76379
76324
76308
76277
76276
76286
76277
76246
76224
76189
76170
76140
76151
76133
76133
76092
75958
75811
75681
75584
75533
75505
75486
75464
75466
75499
75529
75557
75602
75697
75742
75743
75755
75739
75767
75803
75860
75910
75937
75968
76015
76052
76098
76130
76204
76299
76400
76498
76579
76688
76738
76801
76883
76972
77100
77108
76999
76806
76661
76569
76459
76395
76299
76208
76122
76049
75982
75944
75918
75851
75780
75692
75646
75553
75483
75436
75396
75325
75295
75281
75281
75255
75219
75200
75180
75158
75208
75259
75344
75389
75422
75582
75761
75834
75826
75800
75768
75767
75759
75819
75751
75697
75656
75661
75735
75791
75759
75658
75512
75292
75198
75102
75030
74923
74915
75039
75465
75035
74854
74596
74481
74371
74282
74205
74155
74136
74096
73990
73826
73691
73553
73499
73475
73484
73483
73492
73506
73526
73534
73566
73564
73580
73542
73525
73522
73538
73545
73563
73597
73619
73647
73677
73727
73749
73805
73812
73860
73874
73901
73887
73769
73605
73476
73445
73418
73404
73422
73446
73447
73473
73507
73526
73569
73616
73625
73631
73602
73607
73607
73650
73656
73660
73667
73705
73712
73717
73734
73757
73777
73776
73788
73820
73761
73613
73493
73396
73355
73333
73348
73348
73366
73380
73395
73434
73459
73494
73529
73517
73499
73523
73507
73506
73546
73573
73595
73605
73614
73648
73664
73663
73695
73736
73785
73788
73808
73830
73857
73824
73684
73563
73489
73443
73453
73461
73477
73500
73508
73537
73575
73580
73634
73684
73675
73690
73695
73698
73720
73744
73756
73782
73808
73840
73865
73883
73891
73910
73948
73994
74014
74034
74061
74077
74120
74123
74156
74184
74198
74222
74243
74262
74289
74296
74310
74341
74249
74118
73978
73899
73857
73843
73871
73880
73901
73916
73942
73968
74014
74049
74067
74099
74078
74111
74078
74106
74117
74137
74154
74174
74209
74228
74254
74261
74295
74318
74307
74358
74377
74398
74437
74467
74486
74523
74546
74572
74611
74636
74653
74686
74708
74731
74745
74712
74579
74445
74357
74325
74332
74349
74374
74398
74431
74466
74496
74550
74610
74658
74664
74692
74695
74708
74719
74745
74771
74801
74825
74854
74874
74896
74926
74979
74988
75013
75059
75066
75107
75111
75143
75201
75211
75242
75270
75291
75298
75334
75363
75385
75364
75299
75159
75065
74999
74995
74980
74992
75026
75045
75141
75213
75339
75466
75583
75646
75744
75815
75914
75952
75951
75866
75818
75738
75673
75602
75537
75392
75252
75249
75748
77026
77171
77098
77022
76963
76933
76859
76809
76773
76760
76774
76670
76517
76401
76339
76296
76270
76277
76260
76276
76280
76272
76298
76305
76340
76367
76356
76338
76326
76331
76310
76308
76323
76325
76312
76342
76353
76362
76355
76368
76380
76404
76417
76443
76471
76475
76501
76504
76523
76541
76547
76580
76561
76470
76386
76356
76366
76365
76398
76443
76485
76499
76527
76573
76611
76642
76664
76666
76677
76682
76702
76723
76753
76765
76799
76793
76820
76847
76854
76859
76895
76911
76927
76951
76963
76996
77027
77038
77042
77010
76954
76828
76752
76737
76728
76733
76757
76781
76819
76851
76874
76901
76940
76987
76987
76985
76979
76997
76983
77008
76997
77024
77041
77054
77062
77098
77110
77121
77140
77146
77162
77174
77167
77186
77158
77076
76974
76886
76857
76850
76843
76880
76876
76913
76928
76943
76978
77022
77070
77092
77099
77090
77116
77113
77143
77150
77179
77177
77152
77134
77103
77062
77035
76996
76978
76988
76985
76988
76926
76787
76689
76612
76558
76545
76599
76601
76596
76621
76647
76644
76674
76711
76722
76734
76726
76677
76666
76653
76685
76756
76868
76974
76997
77012
70322
77025
77027
77016
77001
76977
76975
76949
76970
76902
76786
76700
76685
76699
76732
76764
76805
76869
76911
76982
77025
77080
77169
77238
77310
77394
77454
77502
77512
77553
77599
77591
77373
77139
77102
77183
77259
77263
77258
77245
77286
77480
77787
77942
78025
78005
77964
77982
78088
78182
78260
78310
78344
78480
78596
78629
78620
78458
78273
78181
77989
77804
77503
77522
77646
77569
77483
77418
77296
77080
76985
77157
77542
77786
77970
78093
78116
78121
78029
77927
77896
77913
77940
78033
78060
78112
78144
78146
78133
78154
78205
78211
78215
78178
78169
78131
78079
78046
78006
77960
77924
77922
77887
77877
77878
77833
77811
77759
77692
77636
77637
77620
77589
77451
77299
77120
76974
76753
76606
76399
76290
76225
76214
76198
76233
76229
76267
76302
76306
76307
76319
76318
76278
76138
75980
75865
75834
75824
75806
75826
75817
75843
75843
75851
75838
75836
75833
75833
75829
75825
75877
75897
75931
75956
75972
76004
76075
76122
76139
76210
76268
76307
76353
76415
76440
76496
76546
76583
76613
76658
76677
76709
76726
76738
76754
76778
76775
76818
76863
76856
76844
76776
76666
76589
76566
76544
76573
76563
76589
76631
76670
76694
76727
76765
76808
76827
76867
76865
76851
76863
76883
76889
76914
76933
76959
76963
76981
76977
76954
76971
76944
76941
76927
76930
76911
76889
76881
76855
76873
76901
76897
76888
76926
76932
76943
76946
76892
76831
76739
76695
76681
76683
76703
76731
76750
76765
76807
76842
76866
76920
76946
76967
76981
76987
76988
76993
77005
77018
77039
77054
77084
77073
77118
77117
77133
77157
77163
77180
77202
77208
77244
77244
77243
77261
77273
77275
77303
77302
77233
77161
77100
77069
77058
77061
77089
77118
77140
77176
77184
77243
77261
77289
77331
77337
77367
77341
77365
77365
77371
77403
77389
77407
77413
77433
77438
77454
77453
77450
77463
77469
77471
77504
77520
77515
77520
77479
77405
77316
77295
77285
77262
77260
77280
77306
77311
77332
77367
77359
77388
77416
77405
77434
77428
77441
77461
77483
77512
77539
77558
77561
77579
77583
77597
77612
77625
77644
77636
77661
77652
77611
77523
77456
77417
77408
77392
77408
77410
77434
77432
77449
77470
77497
77509
77528
77524
77506
77496
77492
77502
77515
77523
77529
77545
77535
77557
77582
77579
77598
77598
77612
77631
77641
77616
77545
77483
77413
77349
77361
77366
77343
77351
77369
77383
77408
77415
77444
77470
77460
77469
77449
77455
77465
77473
77473
77488
77483
77496
77509
77508
77514
77526
77539
77561
77566
77558
77565
77585
77608
77619
77645
77658
77673
77675
77608
77497
77424
77382
77346
77343
77346
77349
77376
77374
77404
77413
77427
77443
77460
77454
77463
77448
77464
77454
77457
77471
77494
77498
77500
77521
77497
77533
77523
77539
77540
77570
77567
77584
77579
77596
77623
77619
77629
77653
77658
77675
77692
77686
77697
77710
77720
77731
77671
77592
77499
77440
77398
77383
77388
77374
77388
77414
77427
77435
77441
77474
77479
77486
77498
77512
77493
77495
77508
77504
77496
77510
77528
77558
77547
77542
77563
77583
77580
77606
77614
77621
77646
77662
77682
77684
77704
77718
77723
77744
77756
77773
77783
77774
77785
77807
77821
77746
77655
77568
77513
77504
77472
77498
77492
77519
77530
77525
77544
77574
77592
77623
77632
77622
77619
77613
77593
77599
77611
77629
77635
77641
77657
77668
77695
77688
77705
77716
77728
77755
77745
77764
77789
77789
77816
77827
77845
77853
77876
77885
77887
77905
77913
77916
77861
77762
77668
77621
77625
77611
77601
77621
77630
77628
77667
77668
77705
77716
77742
77747
77756
77738
77743
77731
77736
77739
77751
77760
77763
77790
77795
77804
77822
77813
77830
77845
77859
77876
77893
77896
77898
77917
77918
77986
77955
77865
77775
77736
77680
77649
77659
77652
77673
77674
77717
77702
77738
77750
77776
77788
77795
77767
77784
77789
77774
77778
77780
77780
77809
77812
77817
77822
77831
77845
77857
77868
77878
77884
77896
77915
77923
77928
77938
77896
77811
77728
77678
77655
77654
77674
77689
77667
77702
77725
77735
77757
77796
77798
77800
77795
77785
77794
77798
77791
77800
77825
77821
77839
77837
77850
77856
77877
77874
77905
77904
77920
77924
77940
77918
77837
77760
77703
77684
77678
77693
77701
77702
77705
77755
77761
77796
77805
77831
77830
77834
77839
77842
77819
77827
77830
77846
77864
77859
77882
77896
77911
77925
77938
77935
77950
77958
77935
77857
77778
77717
77691
77674
77680
77700
77701
77710
77698
77723
77737
77774
77792
77808
77800
77816
77804
77791
77813
77831
77821
77842
77854
77842
77863
77859
77881
77889
77889
77893
77890
77935
77925
77872
77774
77707
77671
77664
77689
77689
77699
77704
77725
77725
77750
77769
77784
77817
77813
77809
77772
77796
77794
77836
77845
77855
77849
77866
77863
77858
77870
77880
77882
77897
77908
77907
77907
77931
77948
77961
77984
77984
77982
77891
77796
77710
77706
77715
77715
77710
77708
77738
77734
77748
77767
77805
77806
77813
77819
77805
77794
77789
77820
77805
77809
77809
77822
77840
77858
77863
77860
77896
77878
77897
77900
77926
77940
77959
77962
77974
77983
78015
77999
78025
78029
78047
78039
78063
78062
78065
78066
78067
78027
77948
77836
77778
77772
77766
77749
77762
77772
77789
77791
77794
77826
77820
77852
77844
77853
77849
77836
77850
77843
77852
77855
77872
77883
77878
77907
77898
77927
77921
77947
77926
77971
77987
77988
77985
77999
78017
78019
78042
78051
78050
78047
78053
78052
78064
78056
78083
78078
78061
78019
77941
77852
77803
77801
77788
77773
77783
77785
77783
77795
77813
77823
77845
77859
77861
77874
77846
77831
77857
77826
77833
77860
77864
77878
77867
77896
77891
77898
77930
77927
77928
77948
77961
77970
77977
77984
77990
78011
78021
78023
78026
78048
78044
78046
78048
78062
78098
78087
78036
77960
77866
77822
77800
77776
77787
77792
77795
77828
77820
77837
77851
77881
77917
77927
77918
77913
77911
77902
77890
77918
77927
77946
77940
77958
77964
77973
78004
78016
78030
78031
78044
78025
78045
78068
78075
78086
78090
78087
78114
78113
78135
78122
78126
78125
78093
78038
77945
77887
77859
77856
77842
77837
77860
77870
77872
77892
77900
77915
77934
77949
77947
77959
77942
77943
77934
77949
77937
77968
77977
77984
77989
77997
78005
78009
78028
78038
78043
78036
78066
78060
78096
78063
78107
78109
78114
78088
77995
77924
77886
77846
77866
77870
77860
77872
77874
77881
77871
77928
77933
77946
77931
77935
77948
77939
77929
77945
77940
77948
77956
77959
77967
77991
77987
77995
78024
78020
78023
78034
78020
78011
78046
78054
78040
77998
77926
77852
77832
77811
77823
77840
77828
77874
77858
77870
77894
77914
77932
77940
77918
77921
77916
77925
77918
77935
77931
77956
77963
77959
77990
77965
77966
77989
77997
77999
78014
78037
78044
78025
77927
77853
77819
77786
77798
77792
77810
77807
77843
77834
77849
77891
77898
77907
77939
77929
77935
77905
77934
77921
77967
77960
77969
77993
77996
78016
78026
78039
78047
78077
78070
78088
78116
78105
78064
77979
77929
77888
77880
77879
77924
77903
77930
77926
77939
77953
77983
78005
78017
78011
78002
77999
77992
78014
78010
78031
78017
78020
78032
78060
78074
78053
78061
78060
78078
78092
78097
78103
78096
78112
78113
78125
78132
78156
78114
78013
77945
77879
77890
77894
77898
77886
77892
77906
77923
77919
77962
77962
77989
77981
77975
77976
77970
77979
77982
77977
77981
77990
77985
78017
78016
78020
78026
78025
78043
78058
78072
78091
78104
78114
78144
78140
78158
78158
78169
78166
78196
78188
78213
78203
78232
78227
78224
78240
78248
78208
78153
78062
78017
77976
77948
77966
77965
77969
77990
78003
78005
78004
78029
78064
78062
78086
78070
78080
78078
78083
78099
78105
78122
78123
78126
78132
78149
78172
78171
78158
78165
78177
78200
78202
78217
78207
78216
78248
78249
78263
78252
78291
78274
78281
78296
78300
78297
78330
78322
78276
78212
78134
78109
78096
78083
78094
78115
78105
78139
78129
78139
78161
78170
78208
78203
78225
78222
78215
78226
78213
78219
78235
78233
78235
78245
78261
78263
78260
78288
78301
78299
78305
78310
78304
78334
78343
78347
78355
78372
78360
78395
78379
78372
78389
78410
78402
78400
78347
78273
78223
78190
78185
78191
78175
78203
78214
78211
78214
78232
78258
78275
78277
78306
78286
78294
78273
78281
78272
78273
78279
78299
78303
78307
78315
78318
78337
78369
78352
78351
78360
78355
78372
78375
78375
78408
78400
78401
78421
78425
78437
78423
78404
78361
78283
78259
78207
78213
78238
78238
78257
78256
78239
78260
78279
78285
78303
78329
78310
78292
78305
78319
78306
78321
78320
78314
78313
78330
78333
78337
78325
78342
78346
78342
78374
78364
78363
78361
78370
78383
78379
78396
78349
78307
78249
78186
78188
78169
78182
78172
78196
78195
78213
78228
78238
78239
78282
78288
78281
78260
78257
78266
78254
78267
78272
78282
78290
78313
78296
78318
78315
78325
78325
78361
78344
78364
78358
78357
78296
78256
78187
78156
78154
78139
78165
78177
78165
78180
78191
78207
78225
78224
78255
78262
78239
78261
78242
78250
78254
78258
78270
78244
78294
78285
78298
78282
78294
78310
78294
78297
78326
78311
78289
78231
78148
78116
78085
78091
78089
78086
78067
78069
77999
77902
77841
77795
77782
77770
77770
77763
77709
77617
77493
77426
77341
77281
77229
77147
77098
77096
77076
77119
77127
77151
77147
77127
77077
77061
77047
76955
76846
76739
76696
76688
76696
76695
76673
76643
76611
76588
76549
76545
76552
76568
76564
76557
76480
76385
76265
76053
76131
76856
76211
73319
75040
77398
78300
78311
78484
78555
78550
78687
78174
77917
77690
77199
77220
77460
77317
77147
76906
76571
76261
76327
76415
76573
76723
76853
77097
77286
77397
77459
77567
77647
77708
77693
77710
77759
77738
77601
77233
76892
76782
76765
76739
76762
76744
76721
76742
76766
76770
76730
76756
76788
76785
76659
76565
76469
76423
76461
76453
76515
76538
76569
76592
76661
76668
76698
76685
76735
76733
76696
76723
76744
76781
76843
76852
76910
76916
76994
77041
77051
77016
77025
77024
76867
76700
76501
76422
76450
76386
76319
76250
76217
76399
76666
76447
76110
75881
75624
75351
73798
73102
73229
73660
74032
74592
74377
74462
74526
74640
74825
74970
75014
75085
75107
75190
75195
75167
75128
75102
75236
75318
75260
75227
75159
74907
74653
74764
75116
75338
73765
74524
73734
73921
73209
72852
72635
72639
73203
73073
73056
72997
73008
73051
73091
73063
72995
72974
73145
73424
73889
74383
74879
75323
75653
75986
76176
76396
76598
76790
76845
76826
76765
76703
76671
76701
76702
76696
76751
76808
76901
77057
77049
77011
77037
77094
77135
77166
77143
77058
76983
76940
76926
76895
76933
76956
76996
77009
77008
76916
76809
76811
77120
77275
77638
78177
78987
74791
78557
76861
78825
80165
78505
77071
76281
76251
77420
77465
77930
77952
78269
78332
78233
78145
78157
78055
78021
78079
78072
78078
77971
77909
77912
77862
77778
77550
77272
76813
76072
76144
75993
75906
75674
75702
75831
75968
76113
76241
76341
76549
76487
76447
77148
77698
78103
78177
78206
78073
77967
77908
77863
77843
77829
77880
77896
77903
77853
77759
77684
77698
77708
77727
77687
77656
77596
77567
77527
77435
77402
77405
77401
77432
77491
77536
77548
77503
77480
77427
77398
77305
77164
77054
76935
76857
76795
76779
76806
76858
76901
76992
77052
77093
77098
77075
77063
77093
77042
76965
76897
76815
76775
76719
76702
76722
76765
76855
76961
77066
77098
77046
76947
76864
76875
76914
76961
76998
76966
76958
76934
76987
76937
76921
76902
76901
76893
76935
76985
77000
76994
76970
76979
76989
76955
76972
76870
76832
76823
76801
76777
76852
76915
77081
77141
77199
77184
77099
77019
76967
76971
77032
77077
77078
77155
77153
77194
77236
77251
77284
77327
77355
77374
77277
77214
77143
77098
77131
77148
77191
77200
77216
77222
77218
77274
77307
77372
77402
77407
77446
77487
77501
77490
77443
77344
77276
77193
77154
77083
77056
77002
76946
76923
76895
76874
76827
76848
76862
76863
76825
76816
76801
76789
76778
76727
76739
76777
76793
76789
76841
76881
76893
76937
76922
76866
76794
76741
76759
76779
76840
76918
76971
77001
77028
77040
77042
77058
77071
77073
77065
77058
77110
77175
77224
77140
76984
76830
76751
76677
76655
76671
76700
76707
76764
76844
76844
76861
76828
76893
76963
77030
77069
77064
77160
77278
77307
77324
77364
77358
77359
77377
77353
77393
77407
77430
77423
77376
77338
77353
77440
77554
77579
77608
77659
77677
77663
77712
77755
77852
77997
78097
78147
78207
78119
78028
77906
77880
77876
77847
77838
77871
77895
77940
77971
78032
78076
78110
78154
78155
78114
78066
78073
78073
78086
78087
78102
78075
78070
78037
78031
78012
77981
77940
77850
77731
77646
77622
37341
77693
77748
77819
77679
77624
77601
77557
77571
77612
77668
77692
77748
77775
77727
77560
77381
77310
77245
77130
77162
77166
77145
77158
77153
77192
77272
77342
77475
77676
77766
77867
77870
77841
77806
77780
77733
77637
77550
77483
77486
77515
77542
77617
77755
77874
78001
78089
78071
78081
78080
78023
78021
78065
78082
78142
78161
78111
78124
78122
78089
78109
78186
78267
78189
78027
77905
77849
77866
77878
77935
78000
77976
77988
78010
78046
78095
78137
78209
78320
78379
78360
78408
78409
78300
78170
78175
78258
78407
78450
78353
78269
78278
78179
78114
78145
78176
78239
78263
78211
78113
78020
78073
78151
78221
78256
78215
78176
78135
78109
78015
77970
77946
77927
77876
77798
77706
77632
77634
77584
77590
77559
77560
77580
77625
77699
77791
77821
77767
77711
77597
77546
77322
77052
76846
76728
76675
76631
76636
76644
76712
77507
78005
78245
78362
78239
77990
77947
77913
77952
78096
78283
78337
78216
78058
77989
77955
77922
77913
77900
77988
78232
78378
78813
79302
79263
79043
78630
78368
78372
78470
78546
78568
78515
78419
78296
78092
77890
77796
77688
77657
77629
77609
77566
77506
77599
77870
78252
78486
78600
78620
78535
78488
78614
78811
78792
78622
78456
78443
78425
78422
78422
78437
78519
78733
78821
79030
79482
79713
79584
79388
79277
79291
79278
79102
78942
78788
78723
78663
78698
78738
78900
78957
79001
78928
78803
78633
78444
78469
78430
78336
78226
78160
78151
78163
78169
78185
78224
78454
78650
78874
78950
78868
78871
79029
79304
79462
79375
79236
79113
79109
79107
78999
79028
78855
79384
79405
79133
79003
79111
79161
79151
78939
78928
78743
78420
78341
78446
78407
78251
78196
78226
78236
78343
78417
78503
78589
78640
78659
78640
78700
78770
78689
78666
78597
78600
78668
78689
78618
78606
78618
78617
78654
78582
78453
78335
78249
78257
78260
78301
78347
78347
78418
78458
78518
78543
78505
78531
78550
78651
78655
78643
78581
78494
78380
78290
78190
78186
78160
78119
78096
78156
78224
78237
78265
78275
78353
78385
78352
78282
78260
78209
78175
78172
78150
78092
78041
78096
78119
78182
78297
78375
78297
78172
78082
78054
78042
77990
77893
77847
77866
77851
77858
77921
77974
78070
78223
78329
78417
78414
78431
78332
78186
78075
78010
77955
77948
77931
77966
78048
78135
78197
78266
78380
78453
78497
78504
78416
78363
78320
78234
78186
78188
78187
78210
78216
78241
78269
78304
78321
78346
78333
78320
78314
78314
78335
78307
78269
78216
78197
78193
78231
78277
78356
78434
78519
78601
78650
78562
78423
78284
78247
78223
78179
78109
78093
78107
78124
78180
78271
78374
78486
78608
78721
78775
78818
78828
78781
78701
78609
78471
78373
78308
78331
78397
78444
78530
78595
78648
78702
78731
78739
78710
78648
78582
78532
78501
78480
78452
78436
78477
78510
78568
78645
78659
78650
78591
78512
78445
78427
78422
78417
78414
78408
78396
78394
78428
78466
78526
78563
78611
78675
78760
78788
78824
78695
78516
78388
78295
78202
78201
78219
78249
78268
78328
78382
78454
78548
78624
78667
78654
78654
78592
78534
78478
78445
78449
78405
78338
78341
78352
78374
78418
78441
78464
78461
78475
78439
78455
78436
78417
78331
78290
78332
78360
78402
78442
78489
78555
78636
78700
78735
78680
78524
78409
78345
78362
78355
78386
78392
78396
78407
78468
78543
78555
78595
78654
78726
78769
78821
78854
78804
78733
78619
78454
78314
78241
78192
78210
78224
78265
78308
78417
78475
78539
78559
78590
78603
78549
78487
78455
78506
78622
78701
78957
79161
79198
79188
79142
79093
79046
79072
79050
79023
79000
78980
78980
79001
79014
79044
79053
79068
79061
79100
79089
79099
79094
79087
79071
79049
78935
78829
78705
78640
78586
78483
78405
78391
78446
78491
78473
78502
78504
78460
78442
78492
78564
78636
78702
78711
78752
78780
78661
78499
78418
78384
78341
78271
78252
78259
78263
78279
78240
78230
78211
78179
78088
77994
77863
77756
77596
77374
77259
77158
77006
76888
76640
76445
76377
76288
76193
76166
76173
76080
75981
75931
75910
75909
75905
75905
75923
75819
75676
75284
75074
74603
77049
76392
77705
79129
78732
79152
79292
79757
80029
80105
80188
80263
80276
80243
80218
80173
80152
80135
80095
80050
80012
79999
79931
79894
79910
79954
79695
79386
79594
79418
79441
79605
79702
79954
80026
79943
79935
79589
79500
79376
79161
79072
78943
78782
78643
78691
79209
78563
78041
77930
77942
78480
78615
78992
78359
78900
77467
76394
76516
76790
77069
77352
77470
77544
77588
77669
77715
77750
77682
77563
77482
77478
77494
77530
77540
77563
77597
77652
77673
77725
77811
77824
77795
77822
77850
77884
77900
77945
77992
78060
78019
77912
77884
77870
77884
77891
77886
77888
77910
77925
77976
78034
78080
78129
78170
78198
78231
78284
78294
78339
78387
78426
78431
78364
78294
78278
78293
78355
78380
78447
78530
78586
78658
78721
78779
78783
78813
78851
78853
78860
78865
78876
78895
78922
78910
78869
78743
78647
78588
78560
78580
78582
78601
78613
78643
78665
78699
78736
78756
78747
78766
78767
78770
78789
78810
78812
78835
78825
78840
78715
78596
78553
78541
78552
78579
78595
78604
78642
78682
78706
78758
78746
78730
78689
78639
78607
78536
78381
78181
78095
78100
78123
78050
77941
77830
77797
77812
77847
77898
77934
77939
77937
77943
77953
77928
77896
77830
77861
77899
77964
78002
78094
78202
78276
78358
78400
78386
78308
78277
78313
78344
78409
78458
78528
78570
78612
78675
78742
78790
78833
78870
78890
78883
78866
78853
78841
78918
78941
78983
79038
79039
78965
78945
78923
78975
78987
79030
79031
79112
79147
79187
79240
79288
79265
79252
79266
79312
79314
79341
79388
79406
79423
79448
79460
79498
79485
79503
79460
79354
79291
79230
79229
79212
79221
79236
79270
79311
79371
79432
79471
79496
79479
79515
79538
79567
79581
79606
79639
79627
79613
79597
79528
79430
79282
79156
78956
78848
78684
78576
78491
78466
78364
78304
78618
78811
78813
78790
78766
78739
78752
78783
78812
78866
78914
78876
78901
78908
78895
78854
78763
78702
78686
78673
78722
78741
78766
78821
78868
78905
78931
78927
78907
78907
78909
78898
78873
78839
78874
78889
78897
78928
78985
79028
78963
78882
78809
78789
78797
78817
78847
78896
78929
79004
79069
79149
79191
79205
79207
79219
79215
79210
79208
79243
79254
79271
79271
79312
79343
79402
79396
79325
79255
79187
79157
79170
79191
79227
79252
79264
79327
79344
79379
79378
79386
79394
79388
79387
79404
79409
79413
79436
79453
79452
79462
79494
79478
79523
79473
79380
79283
79233
79228
79262
79279
79335
79365
79405
79450
79503
79501
79515
79523
79527
79537
79536
79525
79540
79561
79554
79554
79587
79602
79625
79679
79699
79705
79673
79612
79603
79621
79696
79792
79929
79994
80098
80134
80201
80196
80200
80209
80214
80216
80217
80204
80207
80207
80200
80209
80196
80202
80201
80200
80191
80203
80214
80215
80206
80203
80213
80237
80221
80215
80215
80205
80205
80185
80206
80212
80208
80196
80172
80162
80159
80156
80171
80161
80159
80142
80135
80128
80099
80128
80163
80212
80219
80226
80203
80224
80210
80203
80181
80161
80137
80110
80096
80092
80104
80097
80095
80087
80078
80100
80089
80095
80099
80101
80084
80099
80097
80127
80206
80197
80188
80196
80183
80197
80180
80170
80165
80180
80189
80167
80185
80191
80181
80163
80185
80157
80177
80164
80175
80159
80156
80150
80151
80149
80150
80138
80081
79945
79859
79829
79778
79774
79770
79765
79769
79784
79801
79810
79806
79805
79770
79750
79725
79726
79678
79666
79633
79630
79553
79673
79745
79812
79770
79742
79688
79561
79359
79222
79054
78913
78785
78636
78475
78375
78302
78218
78151
78036
77912
77819
77762
77645
77551
77461
77389
77358
77327
77289
77250
77252
77263
77296
77311
77293
77255
77231
77192
77107
76915
76682
76572
76505
76460
76425
76409
76409
76408
76409
76418
76432
76412
76386
76334
76258
76231
76204
76209
76191
76207
76212
76219
76224
76259
76267
76273
76299
76332
76327
76326
76219
76019
75915
75821
75799
75789
75804
75835
75861
75915
75965
76009
76068
76072
76096
76108
76103
76130
76127
76146
76181
76189
76223
76237
76249
76266
76309
76312
76344
76359
76351
76314
76157
76005
75870
75836
75808
75827
75850
75904
75944
75959
76044
76081
76120
76169
76156
76162
76166
76191
76190
76213
76237
76252
76282
76273
76296
76324
76326
76352
76352
76304
76159
75974
75877
75825
75801
75811
75817
75846
75856
75918
75957
76008
76024
76045
76029
76038
76031
76057
76054
76084
76101
76105
76119
76125
76159
76168
76175
76193
76159
76027
75844
75715
75642
75623
75626
75614
75644
75684
75713
75771
75788
75801
75822
75822
75811
75804
75817
75829
75840
75856
75852
75876
75904
75901
75918
75932
75949
75912
75738
75570
75439
75402
75383
75377
75370
75414
75443
75456
75529
75569
75583
75589
75587
75575
75582
75572
75585
75615
75630
75638
75685
75683
75704
75718
75743
75768
75758
75709
75534
75372
75240
75193
75190
75177
75210
75216
75243
75305
75330
75373
75397
75424
75409
75404
75430
75439
75449
75473
75493
75502
75532
75554
75576
75594
75611
75623
75648
75674
75688
75716
75699
75654
75452
75312
75180
75130
75108
75123
75133
75171
75202
75239
75296
75334
75356
75390
75404
75387
75384
75402
75429
75437
75461
75480
75523
75527
75546
75557
75597
75622
75640
75657
75671
75699
75711
75749
75752
75675
75483
75305
75210
75198
75186
75216
75234
75282
75313
75357
75423
75453
75518
75538
75546
75552
75549
75551
75578
75595
75625
75650
75681
75706
75730
75773
75789
75807
75811
75845
75847
75870
75867
75754
75589
75467
75388
75373
75402
75461
75487
75507
75562
75585
75630
75653
75704
75707
75700
75723
75740
75774
75814
75846
75891
75945
75971
75995
76047
76077
76126
76154
76205
76238
76282
76301
76309
76197
76068
75972
75942
75928
75939
75986
76020
76068
76093
76144
76204
76242
76275
76287
76305
76324
76331
76350
76382
76405
76428
76466
76516
76531
76540
76549
76571
76596
76635
76655
76637
76542
76438
76382
76363
76373
76404
76423
76453
76476
76491
76517
76550
76584
76552
76589
76577
76613
76610
76619
76647
76654
76668
76686
76702
76731
76739
76767
76758
76779
76790
76784
76682
76575
76518
76456
76448
76470
76474
76504
76533
76553
76580
76622
76627
76655
76674
76653
76675
76686
76724
76727
76759
76743
76781
76761
76770
76784
76780
76828
76810
76793
76752
76642
76524
76471
76436
76425
76461
76467
76498
76541
76563
76587
76615
76638
76648
76630
76630
76633
76653
76679
76669
76711
76720
76744
76761
76763
76769
76811
76797
76812
76847
76834
76775
76669
76558
76513
76490
76472
76520
76527
76554
76582
76605
76629
76657
76674
76690
76675
76716
76712
76711
76718
76751
76761
76771
76774
76795
76836
76831
76873
76872
76901
76894
76921
76918
76952
76953
76884
76764
76654
76614
76584
76597
76635
76655
76691
76738
76751
76799
76831
76843
76864
76867
76858
76865
76840
76845
76845
76860
76879
76910
76926
76941
76971
77009
77041
77039
77059
77086
77106
77134
77157
77172
77177
77116
76976
76894
76842
76837
76852
76872
76906
76925
76978
77003
77053
77073
77129
77135
77138
77132
77158
77174
77211
77227
77258
77278
77292
77308
77346
77389
77406
77405
77418
77440
77426
77462
77483
77487
77454
77353
77258
77207
77173
77193
77187
77221
77220
77258
77286
77315
77338
77357
77375
77385
77359
77381
77382
77419
77429
77434
77448
77433
77445
77462
77488
77478
77496
77516
77537
77511
77543
77536
77484
77367
77282
77238
77220
77226
77232
77260
77286
77290
77291
77362
77356
77385
77389
77377
77393
77399
77415
77435
77423
77449
77470
77476
77532
77545
77542
77572
77573
77608
77619
77649
77580
77471
77408
77338
77326
77332
77354
77356
77392
77417
77440
77466
77503
77528
77534
77549
77545
77549
77551
77574
77584
77594
77610
77618
77635
77629
77658
77657
77672
77683
77701
77618
77516
77427
77386
77352
77370
77370
77395
77387
77418
77436
77456
77461
77487
77485
77483
77485
77456
77486
77494
77505
77512
77504
77528
77530
77527
77524
77570
77564
77572
77585
77588
77511
77394
77307
77244
77207
77209
77213
77234
77250
77270
77288
77318
77331
77368
77375
77378
77334
77357
77378
77373
77414
77396
77396
77427
77434
77468
77478
77481
77507
77517
77542
77542
77560
77547
77575
77577
77590
77590
77617
77578
77466
77330
77234
77216
77190
77205
77212
77237
77261
77279
77300
77347
77373
77384
77374
77403
77401
77394
77414
77434
77427
77466
77463
77480
77507
77504
77508
77540
77554
77567
77584
77599
77620
77629
77629
77647
77656
77622
77507
77405
77322
77311
77303
77297
77329
77348
77373
77407
77428
77460
77461
77485
77475
77471
77466
77458
77483
77488
77505
77485
77509
77548
77563
77585
77594
77606
77616
77619
77628
77661
77648
77636
41941
77477
77405
77330
77335
77331
77343
77359
77358
77393
77422
77453
77476
77512
77522
77498
77500
77485
77491
77488
77512
77537
77545
77573
77559
77586
77582
77584
77619
77607
77635
77652
77645
77645
77606
77481
77391
77332
77325
77324
77340
77338
77350
77362
77385
77416
77437
77484
77464
77476
77481
77441
77474
77461
77495
77486
77497
77512
77536
77520
77563
77551
77558
77567
77569
77574
77574
77493
77381
77298
77239
77187
77195
77191
77209
77236
77245
77272
77315
77320
77335
77343
77326
77343
77327
77352
77353
77384
77381
77373
77378
77422
77399
77415
77434
77445
77461
77462
77481
77482
77492
77446
77313
77212
77140
77146
77118
77131
77137
77165
77161
77179
77210
77247
77256
77277
77258
77252
77246
77264
77286
77270
77291
77335
77315
77337
77329
77360
40710
77361
77373
77397
77406
77441
77445
77457
77453
77461
77485
77486
77521
77505
77477
77368
77208
77140
77107
77062
77075
77100
77139
77133
77160
77180
77211
77237
77245
77246
77265
77248
77262
77267
77286
77281
77309
77308
77334
77331
77354
77373
77380
77386
77402
77415
77437
77438
77481
77465
77491
77505
77521
77552
77497
77428
77328
77253
77198
77212
77217
77233
77283
77284
77289
77287
77278
77262
77278
77272
77271
77279
77310
77309
77321
77331
77340
77350
77370
77377
77388
77383
77428
77431
77441
77454
77460
77460
77486
77499
77471
77396
77274
77173
77123
77126
77149
77143
77160
77200
77230
77235
77299
77335
77358
77365
77390
77397
77390
77410
77407
77450
77469
77474
77489
77500
77507
77506
77543
77531
77550
77572
77565
77580
77598
77633
77617
77624
77621
77549
77420
77377
77369
77348
77351
77381
77400
77421
77441
77448
77482
77477
77506
77503
77508
77481
77471
77486
77492
77510
77525
77514
77523
77520
77543
77574
77572
77570
77589
77592
77625
77609
77620
77603
77524
77411
77351
77319
77316
77303
77305
77338
77351
77362
77399
77406
77409
77418
77424
77407
77409
77393
77408
77414
77426
77418
77415
77430
77411
77431
77436
77445
77451
77421
77453
77451
77442
77355
77247
77174
77129
77106
77112
77122
77146
77138
77133
77172
77174
77225
77211
77229
77198
77206
77210
77199
77215
77208
77215
77199
77218
77231
77246
77224
77242
77242
77257
77276
77259
77286
77267
77250
77164
77037
76982
76960
76922
76931
76951
76956
76965
76973
76982
76983
77032
77053
77053
77048
77047
77025
77035
77075
77051
77073
77074
77091
77082
77098
77123
77120
77125
77125
77170
77156
77193
77203
77208
77239
77254
77258
77268
77252
77146
77051
76972
76937
76905
76918
76934
76933
76965
76989
76982
77020
77036
77068
77049
77081
77066
77082
77072
77078
77103
77128
77132
77133
77142
77172
77176
77217
77206
77238
77225
77232
77273
77268
77285
77303
77289
77310
77359
77353
77291
77188
77127
77038
77017
77016
77017
77055
77070
77077
77111
77118
77141
77174
77179
77184
77199
77203
77196
77205
77220
77248
77251
77249
77266
77270
77250
77256
77253
77273
77279
77235
77235
77274
77291
77277
77293
77324
77326
77290
77217
77134
77057
77035
77019
77022
77028
77038
77059
77076
77104
77132
77164
77157
77178
77186
77165
77171
77157
77199
77188
77190
77215
77218
77216
77229
77237
77258
77264
77275
77270
77289
77298
77302
77314
77307
77306
77231
77141
77070
77031
76985
76991
76993
77007
77030
77031
77031
77070
77086
77110
77093
77089
77088
77072
77081
77065
77094
77085
77099
77091
77103
77128
77117
77111
77116
77134
77127
77129
77153
77151
77141
77085
76990
76907
76859
76832
76824
76826
76859
76836
76848
76864
76870
76907
76924
76929
76920
76913
76911
76908
76901
76931
76929
76930
76935
76975
76962
76972
76970
76996
77000
77003
77035
77014
77072
77052
77070
77070
77043
77048
76972
76877
76799
76759
76741
76732
76734
76761
76734
76763
76757
76791
76827
76835
76845
76855
76861
76851
76842
76844
76852
76857
76870
76879
76877
76910
76916
76936
76941
76936
76977
76985
77001
77010
77019
77043
77047
77078
77081
77090
77071
76995
76872
76820
76754
76750
76735
76743
76752
76778
76800
76808
76834
76844
76853
76873
76870
76862
76860
76862
76870
76884
76875
76902
76909
76899
76917
76943
76943
76964
76965
76977
77006
77004
77016
77022
77051
77050
77087
77080
77088
77099
77109
77074
76995
76906
76837
76782
76751
76760
76760
76787
76781
76811
76834
76846
76886
76904
76907
76918
76888
76881
76870
76897
76904
76894
76927
76912
76923
76937
76955
76951
76970
76987
76990
77015
77017
77021
77037
77035
77070
39251
77065
77062
76985
76898
76811
76743
76724
76732
76724
76764
76772
76787
76797
76813
76848
76845
76861
76885
76849
76841
76861
76875
76884
76881
76880
76902
76905
76916
76942
76953
76952
76957
76959
76982
76971
76998
77009
77026
77038
77021
76948
76842
76774
76718
76699
76685
76713
76691
76719
76723
76744
76755
76785
76812
76825
76823
76847
76829
76828
76816
76861
76841
76868
76874
76894
76902
76908
76914
76940
76940
76941
76966
76970
76998
77026
77027
77048
77048
77053
77046
76974
76866
76782
76761
76703
76705
76714
76714
76726
76744
76755
76785
76812
76810
76848
76850
76835
76846
76840
76831
76838
76852
76837
76872
76868
76865
76908
76915
76912
76944
76957
76980
76980
76990
77011
77025
77057
77051
77064
77103
77095
77080
76987
76879
76797
76748
76753
76736
76752
76767
76779
76791
76797
76854
76864
76887
76874
76873
76871
76881
76887
76876
76876
76897
76893
76924
76936
76950
76954
76958
76985
76984
76999
77004
77011
77025
77037
77058
77049
77049
77081
77070
77023
76932
76824
76753
76725
76703
76693
76720
76728
76748
76762
76784
76792
76839
76856
76854
76851
76842
76838
76834
76842
76855
76861
76855
76893
76907
76909
76927
76921
76931
76938
76946
76967
76994
76996
76996
77025
77014
77042
77042
77034
76971
76843
76748
76680
76663
76657
76647
76666
76694
76692
76709
76737
76762
76801
76797
76811
76827
76803
76813
76815
76809
76808
76841
76844
76844
76871
76887
76880
76909
76898
76918
76920
76926
76940
76957
76965
76989
76995
77009
77004
77014
77026
77026
76956
76849
76745
76688
76659
76672
76651
76644
76705
76693
76701
76737
76753
76767
76782
76788
76761
76783
76792
76787
76785
76769
76790
76802
76800
76832
76838
76834
76857
76874
76866
76880
76900
76916
76913
76919
76952
76970
76985
76982
76996
77024
77055
77072
77061
76971
76886
76824
76774
76767
76770
76767
76782
76775
76808
76813
76819
76848
76854
76872
76865
76847
76820
76828
76831
76832
76854
76867
76875
76870
76874
76873
76909
76888
76894
76926
76925
76925
76929
76948
76946
76968
76987
76975
76985
76915
76788
76708
76666
76637
76631
76635
76653
76640
76670
76679
76709
76729
76754
76742
76768
76746
76746
76738
76753
76738
76764
76762
76800
76785
76820
76795
76834
76817
76858
76858
76863
76887
76903
76910
76913
76930
76946
76922
76836
76743
76644
76613
76580
76573
76584
76605
76593
76605
76635
76655
76699
76704
76743
76740
76731
76736
76736
76722
76759
76772
76787
76794
76801
76817
76827
76834
76835
76870
76886
76889
76910
76929
76944
76933
76969
76992
76996
77004
77026
77027
76927
76803
76712
76649
76635
76636
76635
76652
76675
76681
76695
76704
76753
76766
76790
76803
76783
76798
76813
76791
76796
76815
76816
76849
76851
76853
76874
76883
76904
76913
76944
76968
76969
76988
76998
77012
77047
77067
77074
77093
77108
77121
77132
77134
77057
76953
76846
76790
76754
76764
76772
76791
76797
76813
76847
76863
76886
76910
76925
76940
76944
76924
76924
76921
76949
76942
76974
76976
76994
76993
77011
77024
77020
77034
77039
77051
77071
77079
77105
77099
77106
77117
77142
77098
77038
76906
76822
76795
76780
76769
76788
76804
76803
76837
76868
76882
76935
76954
76945
76945
76928
76944
76937
76945
76959
76975
76984
76989
76994
77011
77003
77008
77014
77049
77042
77068
77088
77080
77122
77122
77140
77119
77051
76944
76848
76816
76757
76756
76753
76779
76819
76818
76828
76836
76888
76906
76951
76944
76946
76938
76948
76946
76965
76966
76970
76979
76995
77012
77019
77016
77028
77066
77052
77069
77092
77107
77132
77122
77168
77149
77186
77212
77228
77248
77228
77187
77061
76902
76820
76782
76758
76754
76760
76755
76774
76795
76817
76815
76858
76875
76902
76902
76889
76887
76890
76896
76894
76896
76932
76941
76951
76956
76976
76993
77000
77017
77057
77055
77081
77114
77106
77132
77139
77168
77172
77194
77201
77230
77238
77219
77237
77264
77246
77153
77007
76876
76814
76765
76763
76761
76783
76799
76824
76842
76861
76904
76932
76952
76965
76959
76944
76932
76941
76914
76936
76946
76949
76972
76988
76998
76986
77004
77020
77025
77057
77066
77072
77092
77103
77105
77122
77135
77139
77155
77108
76991
76830
76735
76684
76681
76684
76691
76706
76737
76764
76787
76797
76838
76864
76862
76890
76865
76848
76850
76849
76866
76883
76897
76901
76918
76937
76946
76957
76951
76973
76988
77006
77014
77017
77054
77048
77081
77092
77114
77122
77075
76940
76799
76697
76632
76614
76600
76619
76636
76657
76658
76692
76743
76755
76792
76812
76811
76794
76794
76798
76792
76805
76795
76839
76844
76864
76867
76895
76907
76924
76939
76955
76967
77001
76993
76993
77022
77037
77054
77078
77085
77093
77120
77105
77063
76923
76765
76665
76586
76577
76575
76580
76608
76614
76659
76672
76684
76712
76746
76762
76758
76737
76728
76715
76730
76745
76766
76774
76785
76785
76801
76829
76856
76860
76883
76897
76910
76914
76948
76956
76982
76983
77000
77014
77028
76998
76896
76769
76651
76597
76572
76561
76593
76618
76642
76652
76668
76701
76723
76761
76774
76782
76755
76730
76744
76737
76751
76751
76795
76809
76806
76823
76830
76846
76862
76871
76875
76871
76899
76912
76923
76922
76938
76900
76760
76638
76523
76479
76465
76487
76496
76499
76506
76514
76541
76544
76587
76612
76618
76610
76592
76577
76588
76582
76619
76621
76625
76644
76650
76674
76681
76694
76703
76719
76733
76743
76737
76758
76778
76800
76767
76679
76524
76423
76327
76296
76303
76316
76320
76337
76361
76369
76409
76432
76445
76480
76496
76479
76458
76449
76459
76479
76492
65768
76522
76530
76546
76565
76578
76588
76612
76635
76654
76677
76684
76722
76729
76743
76766
76792
76803
76820
76832
76840
76763
76625
76475
76360
76331
76297
76296
76318
76319
76359
76356
76392
76437
76452
76489
76516
76504
76497
76485
76488
76490
76501
76504
76508
76513
76551
76576
76583
76638
76650
76707
76707
76737
76756
76762
76795
76819
76835
76852
76872
76879
76905
76901
76907
76947
76956
76965
76904
76754
76625
76533
76513
76479
76527
76522
76566
76579
76597
76626
76662
76686
76724
76724
76699
76706
76673
76700
76711
76736
76724
76749
76751
76764
76757
76786
76801
76810
76812
76830
76853
76849
76891
76931
76939
76940
76938
76956
76987
76988
76978
76897
76724
76627
76563
76580
76638
76716
76792
76850
76827
76832
76849
76910
76916
76761
76509
76440
76362
76325
76316
76284
76265
76201
76154
76052
75986
75948
75875
75815
75731
75628
75541
75436
75369
75312
75272
75185
75095
75053
75027
75035
75002
74923
74852
74843
74851
74846
74870
74892
74917
74927
74962
74994
74996
75027
75046
75048
75042
75038
75023
75029
74967
74920
74916
74934
74925
74934
74964
74996
75002
75024
75025
75034
74966
74902
74888
74838
74809
74682
74516
74271
74000
73870
73759
73645
73544
73466
73420
73248
73021
72763
72685
72628
72599
72520
72489
72504
72523
72553
72558
72666
72685
72584
72592
72596
72651
72712
72757
72819
72843
72877
72982
73028
73009
72946
72885
72926
73054
73457
74058
75277
73477
72744
75234
74806
74970
75091
75158
75235
75341
75519
75677
75897
76010
76145
76301
76325
76258
75620
75055
74710
74520
74566
74929
75552
77103
77875
78016
78124
78518
78514
77616
76134
75789
75893
75812
75658
75502
75364
75457
75595
75635
75711
75842
76014
76086
76174
76435
76828
76945
76235
75818
75708
75685
75552
75337
75190
75089
75050
75067
75088
75098
75101
75110
75061
75086
75131
75146
75153
75167
75182
75211
75245
75314
75382
75451
75505
75537
75589
75614
75675
75681
75665
75622
75576
75558
75536
75577
75587
75642
75656
75670
75723
75746
75809
75852
75894
75910
75940
75929
75937
75947
75958
75942
75943
75937
75959
75969
75993
76005
75936
75825
75739
75692
75686
75681
75704
75758
75773
75820
75848
75924
75959
75979
76026
76031
76044
76045
76053
76065
76087
76095
76111
76114
76150
76168
76199
76127
76009
75923
75864
75862
75874
75884
75908
75938
75966
75977
76005
76031
76037
76042
76032
75975
75954
75894
75906
75834
75776
75765
75749
75719
75774
75807
75814
75630
75329
75029
74913
74957
75146
75292
75434
75540
75614
75654
75703
75783
75871
75913
75969
75983
75978
75937
75879
75912
75975
76012
76028
76009
75933
75992
76114
76152
76080
75862
75656
75534
75531
75582
75685
75789
75832
75915
76004
76077
76173
76239
76340
76429
76456
76526
76552
76569
76571
76566
76566
76562
76559
76515
76463
76386
76272
76156
76062
75938
75828
75737
75716
75703
75744
75733
75751
75805
75861
75900
75943
75990
76022
75993
75995
75968
75942
75973
75927
75887
75830
75812
75800
75814
75807
75821
75849
75862
75816
75643
75462
75380
75327
75350
75353
75360
75347
75389
75400
75426
75422
75392
75344
75338
75335
75362
75420
75516
75629
75710
75758
75813
75855
75887
75902
75837
75725
75543
75260
74950
74693
74499
74354
74299
74305
74359
74431
74505
74597
74734
74865
74971
75070
75182
75252
75341
75430
75523
75616
75706
75775
75864
75979
76071
76182
76243
76233
76237
76324
76373
76424
76448
76481
76535
76593
76669
76670
76659
76674
76676
76667
76590
76542
76471
76434
76382
76354
76320
76292
76228
76226
76190
76121
76006
75867
75733
75630
75573
75553
75556
75599
75652
75733
75811
75880
75942
76011
76051
76095
76119
76160
76174
76225
76227
76257
76263
76289
76320
76345
76322
76247
76128
75960
75819
75669
75494
75352
75260
75099
74979
74873
74822
74839
74881
74936
75003
75086
75229
75313
75444
75612
75773
75914
76093
76258
76406
76487
76452
76347
76257
76219
76198
76184
76178
76220
76245
76266
76335
76355
76418
76415
76441
76475
76476
76474
76495
76478
76502
76483
76513
76530
76546
76568
76514
76355
76224
76142
76102
76063
75984
75810
75658
75548
75537
75493
75501
75471
75515
75681
75730
75770
75755
75785
75811
75788
75777
75774
75778
75706
75588
75474
75383
75349
75317
75268
75188
75021
75001
75053
75122
75211
75329
75388
75438
75397
75335
75191
75114
75120
75195
75290
75419
75510
75542
75479
75367
75288
75209
75194
75189
75239
75276
75344
75396
75436
75468
75554
75633
75686
75720
75763
75811
75842
75881
75893
75946
75954
76010
76042
76027
75957
75851
75747
75731
75727
75743
75770
75836
75873
75933
75991
76056
76087
76112
76138
76167
76144
76158
76162
76184
76210
76231
76255
76296
76301
76251
76128
76039
75973
75945
75974
75999
76038
76075
76154
76213
76269
76321
76325
76350
76365
76380
76377
76403
76406
76421
76462
76457
76501
76514
76472
76383
76268
76210
76176
76169
76201
76226
76282
76334
76373
76425
76451
76489
76505
76496
76504
76492
76507
76517
76504
76522
76551
76582
76582
76533
76449
76330
76245
76218
76223
76228
76272
76289
76332
76389
76426
76458
76473
76491
76476
76468
76445
76436
76419
76432
76416
76430
76430
76374
76307
76099
75902
75740
75649
75534
75468
75483
75436
75436
75425
75409
75395
75354
75344
75327
75300
75279
75268
75270
75282
75324
75373
75427
75421
75322
75189
75090
75055
75054
75046
75036
75079
75116
75124
75201
75236
75267
75284
75269
75266
75253
75284
75291
75319
75332
75388
75410
75457
75449
75378
75281
75232
75219
75225
75265
75296
75354
75409
75455
75502
75579
75562
75584
75561
75577
75566
75599
75604
75633
75623
75652
75665
75677
75666
75575
75441
75384
75377
75363
75375
75406
75453
75486
75532
75562
75596
75609
75610
75607
75623
75608
75630
75609
75641
75676
75699
75714
75729
75749
75705
75618
75505
75464
75469
75477
75498
75525
75532
75593
75650
75661
75705
75688
75698
75683
75699
75699
75712
75721
75737
75747
75768
75777
75788
75821
75833
75842
75788
75659
75548
75491
75490
75516
75547
75559
75599
75616
75654
75691
75706
75710
75687
75664
75680
75675
75699
75703
75730
75752
75784
75817
75835
75840
75854
75863
75870
75889
75916
75954
75877
75746
75632
75581
75565
75584
75628
75624
75653
75687
75722
75750
75743
75770
75782
75759
75767
75762
75762
75793
75791
75809
75818
75824
75837
75827
75829
75851
75855
75873
75893
75887
75909
75903
75827
75699
75522
75415
75325
75237
75190
75138
75107
75086
75050
75032
75030
74990
74966
74913
74863
74837
74809
74779
74754
74739
74702
74694
74681
74659
74656
74621
74574
74515
74495
74474
74431
74429
74389
74431
74429
74369
74277
74235
74261
74316
74335
74375
74399
74412
74469
74519
74573
74614
21257
21230
21227
21198
21198
21197
21200
21177
21155
21150
74912
74959
74980
74995