40,-5,113
5351,-30714,37
1791,-30720,36
1663,-30720,36
552,-23034,33
41,-57,4
43,-52,3
44,-52,9
45,-49,13
42,-47,18
43,-39,21
38,-34,26
37,-31,31
33,-23,34
34,-21,35
31,-15,37
29,-12,40
32,-11,43
34,-12,39
31,-11,41
29,-12,40
28,-11,39
26,-12,39
22,-14,37
23,-15,36
19,-17,33
21,-14,29
19,-20,26
21,-20,23
20,-22,20
21,-21,14
19,-16,10
16,-18,9
14,-14,8
10,-17,2
9,-17,-1
7,-16,-7
7,-19,-8
5,-19,-9
4,-19,-15
0,-22,-11
0,-20,-14
-2,-19,-16
-6,-17,-17
-7,-13,-14
-8,-12,-15
-12,-9,-18
-12,-7,-15
-11,-5,-13
-14,-5,-14
-13,-5,-18
-9,-7,-16
-11,-8,-16
-10,-11,-17
-6,-15,-13
-6,-19,-16
-5,-24,-16
-2,-25,-18
1,-31,-18
0,-34,-15
4,-31,-18
3,-35,-15
0,-34,-11
-1,-31,-15
-8,-30,-14
-14,-26,-12
-18,-23,-18
-27,-24,-18
-35,-22,-23
-45,-21,-30
-53,-24,-40
-67,-27,-44
-76,-28,-48
-89,-30,-58
-109,-29,-62
-129,-25,-67
-147,-28,-67
-170,-28,-76
-192,-30,-72
-216,-35,-71
-240,-45,-76
-264,-55,-77
-290,-69,-83
-315,-88,-84
-346,-107,-92
-381,-133,-101
-417,-163,-108
-459,-202,-119
-504,-242,-136
-550,-297,-155
-595,-365,-175
-640,-435,-194
-681,-516,-217
-728,-599,-239
-779,-671,-263
-832,-716,-280
-894,-731,-293
-958,-730,-308
-1021,-730,-322
-1084,-737,-335
-1147,-751,-354
-1205,-770,-366
-1259,-801,-383
-1308,-842,-400
-1355,-890,-418
-1392,-948,-440
-1425,-1017,-465
-1448,-1104,-493
-1459,-1196,-522
-1463,-1268,-544
-1477,-1290,-552
-1491,-1261,-554
-1507,-1201,-545
-1521,-1124,-534
-1532,-1048,-521
-1538,-980,-509
-1545,-919,-498
-1545,-863,-483
-1547,-822,-474
-1546,-793,-466
-1538,-775,-460
-1531,-774,-454
-1525,-787,-454
-1520,-813,-458
-1514,-852,-462
-1513,-900,-472
-1510,-964,-484
-1511,-1033,-497
-1518,-1096,-516
-1529,-1146,-530
-1538,-1166,-542
-1546,-1152,-546
-1551,-1114,-548
-1545,-1066,-548
-1535,-1025,-545
-1518,-988,-542
-1491,-959,-535
-1455,-936,-528
-1411,-919,-520
-1364,-909,-510
-1316,-911,-497
-1258,-922,-489
-1202,-950,-483
-1141,-999,-477
-1076,-1054,-469
-1015,-1110,-461
-961,-1159,-457
-908,-1197,-447
-863,-1223,-433
-817,-1238,-423
-771,-1239,-404
-722,-1237,-384
-678,-1229,-359
-634,-1217,-342
-590,-1207,-321
-548,-1195,-307
-506,-1184,-290
-460,-1181,-276
-410,-1171,-261
-355,-1125,-248
-306,-1066,-234
-247,-1015,-216
-195,-935,-195
-140,-888,-171
-82,-849,-146
-32,-777,-114
19,-747,-82
70,-714,-50
117,-659,-20
161,-645,9
195,-631,31
221,-601,58
239,-599,81
249,-595,101
253,-582,116
253,-574,124
253,-559,131
254,-557,129
258,-546,131
259,-529,129
262,-511,132
263,-489,130
273,-462,130
279,-435,132
285,-413,136
292,-387,141
297,-363,157
296,-339,168
296,-319,180
295,-301,191
287,-283,202
279,-267,208
272,-253,211
269,-240,220
259,-230,222
257,-219,225
254,-208,226
253,-199,225
258,-189,228
258,-185,226
260,-178,229
266,-177,235
267,-173,232
269,-169,235
266,-163,235
267,-158,234
266,-148,234
258,-143,233
250,-130,238
238,-120,235
232,-109,238
224,-98,240
213,-93,240
201,-81,238
198,-79,240
192,-72,238
191,-67,238
192,-65,235
200,-67,233
204,-71,233
218,-74,230
233,-83,227
244,-93,227
259,-102,225
269,-109,225
270,-115,225
271,-121,225
270,-127,226
264,-130,225
255,-133,228
245,-130,222
239,-130,216
231,-128,208
221,-125,204
214,-120,191
208,-116,178
202,-116,171
195,-111,154
196,-111,148
190,-112,135
193,-114,127
193,-112,120
193,-106,111
194,-105,101
200,-93,94
205,-83,88
209,-73,81
213,-65,78
216,-61,78
221,-57,75
225,-56,74
223,-55,78
224,-55,81
220,-62,86
216,-65,87
209,-63,89
204,-64,86
198,-62,85
194,-67,79
192,-69,75
191,-60,69
191,-63,59
192,-64,51
195,-64,42
196,-69,37
196,-68,27
196,-76,19
192,-83,13
186,-85,5
181,-90,2
169,-90,-3
160,-98,-10
155,-101,-16
148,-100,-22
143,-98,-22
141,-101,-24
147,-99,-26
148,-97,-25
149,-94,-24
157,-96,-21
165,-95,-21
174,-92,-22
180,-86,-21
184,-84,-25
183,-83,-24
182,-82,-26
179,-78,-28
173,-74,-30
168,-75,-30
160,-75,-30
150,-75,-34
139,-71,-37
135,-69,-37
129,-71,-39
121,-72,-41
117,-72,-45
116,-70,-42
117,-72,-47
119,-73,-45
122,-72,-50
126,-72,-54
137,-70,-55
142,-66,-54
153,-63,-57
157,-57,-57
162,-55,-55
166,-55,-51
166,-60,-50
159,-62,-44
157,-67,-38
152,-72,-31
146,-84,-26
140,-91,-20
136,-102,-15
135,-111,-6
132,-119,-5
133,-126,0
135,-130,3
139,-129,7
143,-130,9
151,-130,11
161,-122,15
170,-119,13
182,-110,17
189,-103,16
197,-94,19
201,-88,23
205,-82,26
204,-77,34
202,-73,42
197,-72,47
192,-74,56
179,-78,61
173,-78,68
162,-77,73
152,-81,77
143,-83,84
136,-85,87
133,-85,87
129,-86,86
130,-80,90
130,-77,91
132,-71,87
132,-62,91
133,-55,88
136,-46,88
139,-42,87
133,-35,93
130,-31,93
128,-29,91
117,-25,93
111,-23,92
102,-23,95
94,-25,93
87,-22,91
82,-26,92
75,-28,86
70,-26,80
69,-27,79
67,-27,74
65,-23,73
63,-21,67
66,-21,65
63,-17,59
63,-16,59
57,-17,50
50,-17,45
43,-17,37
38,-14,31
31,-15,25
26,-15,21
17,-16,16
12,-18,9
9,-19,3
4,-21,-1
0,-20,-7
-1,-22,-12
-2,-23,-11
-2,-24,-12
-3,-25,-11
-7,-23,-9
-11,-24,-6
-14,-25,-4
-17,-24,0
-19,-25,0
-18,-22,-3
-14,-26,-3
-10,-32,-4
-2,-33,-5
9,-36,-6
20,-39,-3
34,-41,-3
44,-40,-4
53,-41,1
57,-39,3
63,-36,9
67,-31,13
72,-29,17
76,-27,23
77,-24,25
78,-25,26
78,-22,28
75,-18,28
73,-21,25
67,-23,21
60,-22,18
58,-25,18
53,-27,8
54,-26,3
54,-23,2
58,-20,0
60,-14,0
61,-4,1
63,9,4
66,23,8
63,34,20
67,49,29
68,61,38
69,75,49
66,89,57
67,103,66
65,113,73
62,126,79
63,135,84
59,147,86
56,163,85
58,173,89
57,192,91
55,209,90
58,223,89
64,235,94
71,255,97
78,274,102
87,289,104
96,309,115
110,324,126
125,344,139
140,366,159
159,395,178
183,422,201
208,453,227
236,484,261
264,519,290
291,555,323
316,592,351
339,628,379
360,664,406
378,694,425
392,727,445
406,754,460
423,778,476
432,799,482
448,820,484
460,837,488
473,856,489
483,878,488
492,891,489
499,905,487
504,915,486
512,927,480
512,938,473
517,949,467
519,959,463
517,971,458
509,978,451
510,985,441
499,994,430
492,1001,422
489,1006,412
481,1011,401
475,1015,384
466,1013,374
456,1009,362
446,1002,352
440,997,341
443,986,337
435,975,330
434,961,329
433,948,328
431,937,325
432,925,326
432,910,322
429,901,325
429,887,326
428,875,332
423,866,334
422,855,334
412,848,339
402,841,345
387,838,346
373,838,350
353,839,356
333,842,353
317,830,357
296,840,347
287,850,341
277,849,331
279,850,320
285,842,306
296,843,287
317,839,264
333,842,240
354,845,218
375,849,195
392,852,169
404,851,145
416,845,125
415,837,107
410,833,85
404,823,66
395,821,45
384,811,23
369,806,0
360,791,-19
345,785,-42
333,768,-60
322,748,-81
305,722,-98
291,698,-111
280,670,-126
269,638,-135
262,610,-144
259,578,-151
259,542,-155
256,508,-153
251,478,-152
244,446,-144
232,416,-133
212,393,-123
190,366,-105
158,344,-90
121,320,-70
82,304,-53
45,283,-36
10,264,-21
-24,253,-9
-52,239,2
-76,226,9
-99,215,11
-118,211,10
-135,209,7
-152,212,4
-169,221,0
-189,226,-9
-209,228,-15
-235,230,-30
-263,229,-40
-287,225,-49
-317,222,-66
-340,214,-77
-366,198,-93
-385,169,-106
-404,131,-122
-419,85,-138
-436,32,-147
-443,-16,-160
-445,-62,-174
-443,-101,-187
-429,-131,-205
-410,-153,-219
-382,-179,-241
-350,-205,-262
-314,-233,-282
-283,-259,-301
-253,-281,-321
-228,-305,-338
-204,-339,-353
-191,-369,-368
-176,-400,-377
-168,-427,-383
-165,-446,-381
-170,-458,-381
-181,-457,-371
-204,-451,-355
-236,-435,-338
-273,-414,-314
-306,-388,-294
-341,-358,-267
-366,-327,-249
-384,-296,-230
-388,-271,-215
-382,-245,-199
-372,-220,-187
-351,-204,-177
-325,-189,-168
-297,-174,-158
-266,-164,-146
-239,-157,-133
-211,-154,-120
-188,-156,-105
-165,-166,-89
-147,-172,-66
-127,-179,-45
-121,-191,-17
-121,-201,8
-131,-202,37
-155,-201,62
-192,-189,87
-234,-176,113
-285,-165,135
-335,-153,155
-382,-142,171
-431,-128,183
-474,-110,192
-506,-94,194
-539,-80,190
-561,-74,188
-581,-72,182
-602,-75,178
-617,-80,172
-633,-93,163
-644,-111,160
-661,-128,157
-680,-150,151
-697,-171,150
-724,-187,153
-753,-195,152
-787,-200,156
-825,-201,157
-863,-200,161
-896,-192,161
-920,-188,156
-947,-183,158
-969,-176,154
-991,-173,148
-1011,-166,139
-1026,-157,129
-1047,-149,120
-1058,-136,111
-1074,-120,101
-1091,-101,93
-1108,-88,89
-1128,-78,85
-1150,-74,82
-1172,-69,87
-1195,-72,91
-1220,-74,93
-1242,-81,100
-1267,-87,104
-1287,-97,108
-1308,-103,115
-1325,-115,118
-1348,-113,121
-1371,-109,128
-1398,-99,126
-1425,-76,132
-1449,-48,132
-1469,-18,133
-1487,20,129
-1503,57,121
-1514,91,113
-1527,120,103
-1541,150,97
-1558,170,90
-1583,186,78
-1612,197,72
-1641,210,63
-1672,217,53
-1709,226,43
-1755,240,36
-1807,259,29
-1866,278,25
-1938,299,22
-2009,326,18
-2077,355,10
-2141,382,9
-2201,414,9
-2255,446,13
-2304,482,13
-2349,518,20
-2390,554,27
-2424,592,34
-2456,625,38
-2475,656,42
-2490,678,47
-2497,695,51
-2499,704,60
-2503,714,59
-2504,717,62
-2502,715,66
-2495,710,66
-2493,706,65
-2488,696,64
-2478,689,61
-2466,673,61
-2451,664,55
-2435,641,50
-2413,621,46
-2387,599,37
-2357,573,27
-2327,545,19
-2303,519,14
-2280,490,17
-2259,457,18
-2247,418,22
-2243,379,34
-2238,340,45
-2231,308,60
-2221,276,80
-2201,245,97
-2187,211,110
-2177,171,120
-2173,133,133
-2174,91,139
-2175,49,142
-2161,18,141
-2132,0,139
-2082,-6,139
-2018,-5,131
-1939,5,130
-1855,19,133
-1771,33,139
-1689,47,151
-1621,59,162
-1564,69,178
-1522,70,195
-1491,65,219
-1473,52,240
-1471,35,264
-1480,14,288
-1487,-9,312
-1494,-28,332
-1505,-45,350
-1516,-53,365
-1522,-64,380
-1519,-72,386
-1508,-80,390
-1488,-83,389
-1460,-84,387
-1428,-80,389
-1396,-76,389
-1361,-66,387
-1338,-55,386
-1320,-42,390
-1316,-26,395
-1322,-11,404
-1338,3,408
-1362,10,421
-1391,19,428
-1420,14,436
-1439,11,444
-1446,0,444
-1448,-8,440
-1439,-25,436
-1419,-37,423
-1391,-50,407
-1359,-60,383
-1322,-73,359
-1289,-87,333
-1263,-108,308
-1241,-130,285
-1231,-154,268
-1236,-186,254
-1256,-222,249
-1286,-256,245
-1341,-296,244
-1410,-331,241
-1480,-369,232
-1549,-399,226
-1607,-433,211
-1658,-461,193
-1696,-489,168
-1724,-514,141
-1740,-537,111
-1749,-557,86
-1753,-568,60
-1754,-586,46
-1752,-585,32
-1743,-582,26
-1736,-571,28
-1722,-557,32
-1711,-536,41
-1698,-510,58
-1686,-479,79
-1668,-448,101
-1649,-417,127
-1625,-386,154
-1594,-358,181
-1566,-330,204
-1525,-307,227
-1480,-287,247
-1430,-272,265
-1372,-262,278
-1324,-254,293
-1277,-248,302
-1236,-239,314
-1200,-235,323
-1175,-225,328
-1151,-211,333
-1134,-198,338
-1127,-186,342
-1120,-175,345
-1115,-165,346
-1113,-158,347
-1114,-157,344
-1121,-162,341
-1132,-179,335
-1137,-194,329
-1148,-215,323
-1158,-247,314
-1169,-277,311
-1183,-304,310
-1197,-329,309
-1222,-344,308
-1250,-359,304
-1287,-376,307
-1324,-396,309
-1360,-418,309
-1393,-449,306
-1423,-484,302
-1440,-515,293
-1452,-545,281
-1455,-572,272
-1446,-591,262
-1424,-599,248
-1391,-595,237
-1364,-588,230
-1337,-580,229
-1317,-570,225
-1310,-568,224
-1300,-573,230
-1302,-578,227
-1306,-588,235
-1311,-601,240
-1312,-618,247
-1316,-633,250
-1319,-649,252
-1314,-656,253
-1307,-653,248
-1283,-646,240
-1263,-635,234
-1236,-624,230
-1205,-617,227
-1173,-625,225
-1144,-640,224
-1118,-660,227
-1091,-685,226
-1062,-709,232
-1034,-732,233
-1006,-753,240
-985,-766,248
-969,-778,254
-963,-787,256
-963,-791,258
-970,-784,260
-982,-773,253
-998,-753,245
-1012,-738,236
-1024,-728,227
-1039,-728,220
-1057,-730,212
-1066,-733,208
-1071,-738,209
-1073,-738,210
-1062,-739,209
-1039,-744,207
-1013,-750,205
-980,-773,203
-941,-801,205
-906,-834,207
-869,-879,209
-830,-931,215
-799,-980,222
-773,-1018,232
-753,-1036,242
-739,-1041,245
-724,-1036,254
-704,-1035,259
-683,-1033,257
-652,-1027,257
-622,-1017,250
-587,-1006,237
-551,-995,225
-515,-985,200
-471,-988,172
-431,-1001,143
-393,-1026,112
-347,-1062,77
-293,-1100,41
-238,-1138,7
-185,-1162,-18
-141,-1166,-36
-106,-1160,-45
-81,-1138,-50
-69,-1110,-51
-65,-1078,-53
-67,-1049,-56
-75,-1032,-55
-87,-1016,-59
-101,-997,-59
-109,-975,-60
-113,-949,-61
-108,-916,-63
-111,-882,-66
-111,-859,-59
-116,-832,-54
-122,-806,-52
-133,-779,-44
-150,-758,-46
-164,-746,-48
-177,-742,-52
-186,-744,-61
-192,-753,-71
-194,-763,-80
-199,-765,-92
-202,-772,-107
-209,-769,-119
-216,-756,-131
-220,-744,-145
-223,-724,-161
-220,-704,-170
-218,-672,-179
-210,-647,-185
-200,-629,-185
-193,-616,-184
-184,-614,-177
-175,-612,-167
-168,-613,-157
-161,-612,-143
-150,-611,-131
-142,-600,-115
-139,-594,-98
-143,-584,-86
-155,-574,-72
-174,-556,-56
-202,-536,-42
-233,-520,-35
-263,-505,-23
-291,-490,-22
-314,-480,-18
-325,-476,-19
-333,-472,-20
-329,-470,-20
-320,-469,-21
-305,-464,-18
-286,-455,-21
-263,-445,-25
-232,-433,-22
-206,-418,-22
-178,-408,-21
-156,-399,-13
-141,-389,-12
-136,-379,-11
-137,-370,-9
-150,-362,-5
-168,-350,-5
-190,-341,-9
-215,-331,-5
-238,-322,-9
-258,-316,-16
-269,-313,-19
-276,-301,-24
-268,-287,-27
-251,-277,-33
-227,-271,-34
-200,-263,-34
-169,-257,-37
-140,-255,-36
-124,-249,-35
-118,-244,-37
-125,-240,-39
-139,-232,-38
-151,-226,-33
-164,-215,-26
-182,-200,-20
-187,-186,-14
-189,-173,-6
-185,-154,4
-176,-145,15
-159,-137,27
-141,-131,37
-117,-131,49
-98,-134,57
-77,-133,65
-56,-130,68
-32,-132,71
-10,-120,70
11,-107,68
26,-94,69
43,-81,66
56,-69,58
59,-59,54
60,-59,42
56,-61,28
47,-69,16
29,-76,3
7,-86,-11
-16,-94,-24
-39,-99,-40
-56,-100,-50
-75,-95,-60
-86,-88,-69
-91,-82,-71
-95,-71,-74
-92,-60,-73
-90,-51,-71
-81,-38,-72
-79,-37,-72
-77,-36,-74
-75,-39,-70
-76,-46,-70
-81,-55,-73
-83,-59,-71
-87,-69,-71
-95,-76,-76
-97,-83,-77
-101,-92,-74
-109,-88,-74
-113,-87,-76
-112,-86,-78
-110,-86,-80
-105,-86,-79
-105,-88,-77
-101,-88,-75
-94,-85,-77
-90,-80,-78
-86,-86,-74
-87,-94,-71
-88,-102,-72
-91,-110,-78
-90,-130,-78
-95,-143,-81
-89,-160,-75
-91,-166,-79
-83,-179,-74
-71,-183,-68
-59,-177,-63
-47,-170,-59
-37,-157,-54
-29,-147,-51
-28,-133,-48
-33,-118,-44
-40,-102,-36
-45,-89,-32
-52,-82,-30
-61,-77,-28
-67,-76,-30
-69,-80,-32
-66,-87,-32
-64,-94,-31
-53,-102,-27
-37,-112,-19
-24,-117,-11
-15,-123,-3
-8,-128,2
-3,-126,10
-2,-125,19
0,-118,24
0,-112,26
2,-108,29
5,-99,30
6,-97,23
13,-95,17
23,-93,13
29,-95,4
42,-103,0
48,-100,-7
59,-102,-13
61,-104,-21
62,-106,-35
56,-110,-41
45,-110,-47
33,-108,-57
16,-102,-62
9,-89,-70
-6,-90,-70
-10,-80,-72
-16,-75,-74
-16,-69,-69
-11,-67,-62
-10,-66,-53
-9,-71,-38
-10,-74,-26
-10,-75,-12
-10,-76,6
-17,-78,19
-17,-73,33
-20,-69,43
-31,-63,51
-33,-58,58
-36,-54,67
-43,-41,74
-49,-32,79
-55,-18,83
-58,-10,91
-58,0,99
-61,1,107
-59,-4,114
-55,-9,129
-55,-16,139
-56,-24,146
-55,-29,156
-53,-36,164
-55,-38,172
-54,-38,178
-54,-43,177
-54,-37,179
-53,-32,175
-55,-27,173
-55,-15,162
-53,-5,157
-52,3,148
-51,14,139
-53,20,138
-51,31,136
-54,39,132
-59,48,132
-59,55,133
-64,60,132
-69,61,136
-70,59,138
-72,60,142
-71,54,147
-68,51,151
-65,42,150
-61,33,154
-57,23,153
-54,14,157
-48,14,157
-46,12,154
-44,8,153
-38,5,147
-32,1,139
-31,-2,140
-27,-2,128
-24,-4,129
-20,-4,125
-18,-4,122
-13,-10,123
-15,-12,124
-11,-19,130
-12,-22,136
-9,-29,147
-8,-36,154
-5,-40,164
-8,-48,177
-9,-55,194
-13,-63,200
-12,-68,208
-9,-78,215
0,-87,227
12,-96,233
18,-101,240
19,-109,250
23,-116,260
26,-122,260
26,-119,265
22,-113,268
24,-103,264
22,-95,267
17,-80,270
10,-65,266
7,-45,263
0,-25,263
-9,-1,259
-17,17,257
-31,33,254
-42,53,248
-50,73,251
-61,92,248
-70,117,253
-78,134,258
-84,151,261
-89,162,264
-94,173,275
-91,175,286
-86,172,299
-79,169,308
-70,164,317
-58,159,329
-52,152,341
-42,138,348
-29,120,360
-12,94,370
1,69,384
12,37,400
26,7,421
35,-26,442
48,-62,468
64,-88,490
85,-112,510
111,-134,531
133,-155,551
152,-170,571
163,-174,600
162,-169,629
158,-154,665
150,-127,703
134,-84,744
113,-33,789
79,28,839
37,78,886
-6,124,930
-53,148,974
-104,171,1014
-153,184,1045
-191,195,1075
-219,207,1099
-241,215,1117
-257,226,1132
-267,238,1137
-270,248,1141
-275,256,1146
-277,265,1149
-285,282,1149
-293,298,1148
-299,314,1145
-304,326,1144
-313,335,1143
-324,341,1140
-337,347,1142
-350,355,1140
-358,375,1145
-366,397,1150
-370,420,1154
-368,442,1161
-366,470,1166
-361,498,1170
-357,533,1179
-362,571,1184
-365,610,1187
-374,655,1194
-375,711,1201
-377,776,1204
-377,851,1210
-376,927,1214
-375,1008,1213
-367,1082,1216
-364,1160,1216
-364,1232,1214
-367,1298,1212
-377,1360,1209
-381,1421,1206
-392,1475,1197
-398,1523,1186
-397,1575,1174
-397,1617,1167
-390,1667,1154
-387,1718,1149
-383,1774,1143
-380,1839,1142
-387,1916,1139
-397,1989,1142
-420,2068,1140
-452,2143,1137
-490,2216,1127
-535,2285,1112
-579,2350,1096
-627,2411,1070
-672,2462,1043
-708,2508,1013
-743,2551,980
-764,2581,944
-772,2606,909
-768,2624,869
-750,2647,834
-724,2666,797
-699,2682,760
-677,2692,725
-657,2699,694
-650,2701,662
-646,2702,629
-655,2702,595
-667,2695,563
-688,2689,528
-715,2683,496
-747,2673,461
-773,2663,423
-802,2651,386
-829,2638,347
-857,2623,313
-888,2618,277
-922,2616,248
-959,2625,219
-1002,2639,193
-1047,2659,171
-1098,2675,154
-1146,2689,138
-1197,2696,126
-1247,2706,112
-1296,2707,103
-1344,2713,86
-1395,2705,77
-1444,2699,65
-1497,2692,53
-1558,2682,40
-1611,2665,25
-1669,2652,15
-1724,2640,2
-1774,2628,-5
-1830,2624,-11
-1876,2617,-16
-1923,2616,-24
-1962,2614,-30
-1996,2613,-37
-2028,2606,-43
-2060,2605,-55
-2085,2601,-70
-2106,2597,-81
-2130,2595,-98
-2145,2589,-117
-2155,2584,-132
-2169,2577,-161
-2179,2570,-183
-2187,2556,-206
-2202,2543,-228
-2213,2520,-252
-2225,2497,-275
-2247,2467,-298
-2263,2431,-316
-2283,2387,-335
-2302,2340,-354
-2320,2285,-372
-2339,2228,-386
-2358,2167,-398
-2373,2103,-416
-2380,2041,-432
-2384,1977,-443
-2382,1926,-462
-2377,1874,-476
-2369,1828,-487
-2356,1785,-505
-2343,1748,-517
-2334,1718,-533
-2329,1690,-542
-2330,1665,-553
-2340,1641,-562
-2356,1616,-567
-2372,1588,-570
-2385,1558,-568
-2398,1531,-565
-2411,1509,-563
-2426,1483,-558
-2440,1458,-554
-2452,1435,-548
-2459,1412,-542
-2457,1396,-541
-2456,1379,-543
-2450,1364,-545
-2435,1350,-549
-2417,1334,-550
-2395,1324,-556
-2372,1307,-557
-2343,1289,-559
-2317,1276,-561
-2283,1257,-556
-2248,1236,-558
-2214,1213,-550
-2179,1190,-544
-2141,1168,-536
-2108,1147,-527
-2073,1129,-517
-2041,1107,-511
-2007,1084,-502
-1977,1064,-497
-1946,1042,-495
-1919,1022,-492
-1891,1003,-495
-1856,981,-497
-1830,957,-500
-1808,936,-507
-1788,916,-515
-1770,892,-524
-1758,866,-537
-1746,847,-550
-1739,830,-563
-1733,817,-575
-1732,804,-589
-1728,795,-603
-1727,785,-615
-1722,772,-626
-1717,764,-635
-1712,749,-650
-1709,729,-653
-1699,707,-660
-1690,681,-666
-1679,653,-670
-1666,624,-674
-1661,596,-683
-1652,569,-686
-1645,546,-694
-1641,523,-708
-1633,501,-718
-1628,490,-734
-1621,483,-755
-1613,486,-776
-1607,495,-801
-1600,506,-822
-1595,517,-844
-1603,536,-864
-1613,548,-879
-1624,568,-901
-1635,582,-922
-1655,592,-943
-1675,596,-962
-1697,595,-987
-1727,588,-1011
-1763,577,-1036
-1805,560,-1068
-1846,544,-1102
-1886,533,-1140
-1931,518,-1183
-1969,513,-1231
-2014,511,-1284
-2054,514,-1340
-2098,505,-1397
-2130,506,-1456
-2152,507,-1518
-2167,502,-1588
-2174,488,-1656
-2175,476,-1728
-2171,465,-1797
-2174,448,-1866
-2177,436,-1935
-2183,428,-1997
-2191,413,-2057
-2220,404,-2106
-2254,395,-2153
-2299,388,-2196
-2355,379,-2231
-2414,371,-2259
-2483,362,-2284
-2551,351,-2314
-2615,339,-2327
-2675,325,-2341
-2727,306,-2358
-2768,283,-2370
-2798,249,-2378
-2819,217,-2385
-2832,177,-2383
-2838,133,-2383
-2841,92,-2378
-2844,50,-2366
-2852,18,-2351
-2860,-7,-2331
-2867,-24,-2308
-2875,-34,-2282
-2887,-38,-2251
-2901,-39,-2221
-2922,-42,-2186
-2931,-42,-2149
-2938,-46,-2116
-2937,-48,-2078
-2935,-52,-2045
-2925,-63,-2003
-2914,-69,-1962
-2906,-76,-1922
-2899,-81,-1875
-2897,-84,-1822
-2894,-79,-1770
-2890,-73,-1717
-2886,-61,-1661
-2883,-50,-1610
-2874,-35,-1559
-2863,-18,-1512
-2852,0,-1466
-2830,13,-1426
-2810,27,-1381
-2790,43,-1341
-2771,51,-1302
-2750,56,-1270
-2723,65,-1237
-2700,68,-1204
-2675,68,-1170
-2651,68,-1137
-2621,67,-1103
-2597,64,-1067
-2568,60,-1036
-2541,62,-1009
-2508,62,-971
-2477,70,-942
-2445,74,-906
-2411,85,-869
-2381,97,-835
-2348,114,-801
-2315,130,-770
-2282,143,-730
-2253,158,-697
-2227,175,-666
-2202,192,-633
-2176,207,-602
-2151,221,-570
-2128,240,-541
-2105,255,-515
-2079,269,-485
-2052,282,-459
-2025,296,-431
-1995,309,-405
-1963,319,-379
-1934,332,-353
-1904,346,-325
-1873,365,-296
-1841,386,-262
-1809,410,-233
-1779,433,-204
-1750,450,-175
-1722,470,-142
-1692,484,-114
-1665,496,-85
-1633,506,-63
-1599,510,-40
-1574,518,-22
-1539,517,-3
-1502,517,12
-1467,514,26
-1431,511,42
-1398,506,57
-1364,500,76
-1330,497,96
-1299,497,114
-1259,496,133
-1221,499,148
-1183,506,163
-1146,514,180
-1111,524,196
-1082,534,212
-1053,538,225
-1029,537,242
-1005,539,256
-985,531,268
-965,515,286
-952,493,300
-942,471,315
-934,436,331
-927,399,347
-918,364,361
-913,331,374
-908,294,389
-908,259,403
-912,231,413
-911,202,419
-911,173,425
-907,153,426
-897,128,427
-887,106,424
-874,85,420
-853,57,414
-823,32,409
-790,-5,406
-749,-41,404
-706,-70,402
-669,-94,403
-632,-118,406
-598,-132,411
-562,-139,417
-530,-143,420
-505,-133,425
-484,-115,428
-467,-95,433
-456,-72,437
-452,-46,440
-456,-23,443
-464,-1,448
-472,15,447
-488,31,443
-495,35,442
-501,36,436
-498,35,424
-488,31,412
-477,31,403
-459,34,387
-439,44,367
-422,54,345
-404,70,322
-388,93,300
-379,115,271
-370,142,242
-368,166,212
-359,187,177
-354,204,141
-350,216,104
-349,221,65
-347,214,34
-346,197,7
-340,172,-25
-336,137,-48
-327,96,-65
-329,51,-79
-327,0,-88
-326,-42,-97
-327,-88,-100
-325,-129,-98
-323,-160,-105
-317,-190,-107
-308,-210,-113
-300,-229,-119
-284,-235,-124
-272,-239,-132
-254,-237,-142
-240,-233,-154
-220,-222,-166
-202,-211,-183
-176,-199,-191
-152,-183,-205
-125,-166,-213
-103,-151,-223
-76,-137,-224
-48,-121,-232
-19,-105,-234
10,-95,-235
41,-80,-236
73,-68,-241
101,-62,-249
127,-56,-258
145,-46,-270
160,-43,-278
163,-39,-284
158,-31,-292
145,-22,-303
134,-18,-305
115,-8,-308
89,-3,-311
69,3,-313
50,5,-314
40,6,-319
28,17,-327
14,22,-332
6,20,-333
2,22,-336
-1,25,-337
0,32,-346
2,38,-348
7,45,-356
11,48,-360
21,57,-367
34,55,-370
46,59,-376
58,57,-377
69,60,-385
80,57,-390
93,57,-389
101,56,-397
105,54,-400
110,55,-404
113,58,-412
115,58,-416
117,59,-422
116,58,-426
112,62,-429
109,65,-434
104,72,-440
101,75,-447
96,82,-455
90,85,-460
90,86,-471
93,78,-476
100,69,-483
104,58,-486
110,40,-490
116,25,-492
122,5,-502
134,-10,-502
140,-29,-508
149,-47,-510
156,-71,-513
158,-85,-518
155,-102,-522
152,-115,-529
140,-124,-526
118,-130,-528
88,-127,-528
50,-123,-528
10,-116,-528
-39,-101,-533
-83,-89,-536
-127,-73,-549
-156,-61,-560
-180,-48,-579
-187,-34,-606
-187,-16,-627
-176,-1,-651
-160,18,-674
-135,33,-692
-110,47,-708
-83,59,-717
-56,68,-721
-29,74,-721
-4,73,-715
16,63,-705
38,51,-687
56,32,-668
72,6,-647
83,-19,-624
97,-55,-596
101,-89,-566
99,-122,-538
100,-159,-499
98,-190,-467
84,-215,-431
79,-236,-394
67,-250,-360
52,-259,-328
39,-264,-294
25,-263,-265
9,-259,-236
-4,-250,-210
-17,-241,-190
-34,-236,-177
-49,-225,-162
-60,-215,-151
-75,-205,-142
-86,-202,-138
-97,-202,-134
-102,-199,-134
-106,-199,-132
-109,-201,-131
-111,-200,-135
-109,-200,-135
-100,-198,-141
-96,-196,-149
-74,-188,-153
-57,-176,-160
-39,-164,-167
-20,-150,-171
0,-133,-176
23,-117,-179
42,-97,-176
59,-80,-172
78,-57,-167
93,-44,-166
106,-25,-157
118,-11,-146
128,4,-139
137,16,-125
140,30,-114
144,44,-100
148,51,-84
155,61,-71
163,69,-51
178,75,-38
194,76,-18
213,70,0
234,66,20
254,60,39
273,50,64
291,34,88
312,14,113
329,-3,139
349,-25,159
366,-44,187
386,-54,201
410,-67,218
433,-76,227
473,-80,232
520,-83,236
568,-82,239
624,-78,236
679,-71,236
734,-69,240
785,-65,242
832,-62,250
875,-57,260
910,-52,270
938,-50,292
955,-42,314
963,-37,337
962,-31,362
953,-25,388
938,-19,414
928,-16,437
912,-16,454
901,-17,469
890,-21,482
884,-26,489
877,-31,502
872,-43,507
861,-58,512
850,-75,516
839,-92,518
817,-114,516
795,-138,516
769,-156,512
739,-170,506
709,-185,496
683,-197,486
660,-210,469
637,-224,447
620,-240,426
608,-259,404
609,-289,373
615,-323,349
627,-358,326
637,-394,309
650,-430,298
658,-462,286
665,-490,282
670,-516,279
672,-536,278
669,-549,279
664,-561,277
654,-569,279
643,-583,279
635,-595,279
625,-607,281
617,-631,284
609,-653,288
598,-683,295
588,-718,299
573,-757,304
557,-803,310
537,-848,319
514,-897,326
489,-937,335
472,-979,334
448,-1013,336
427,-1048,335
404,-1071,323
381,-1094,316
360,-1115,309
340,-1133,294
328,-1151,279
323,-1165,260
319,-1181,245
322,-1193,225
321,-1208,208
327,-1234,193
333,-1263,174
340,-1294,160
342,-1338,146
336,-1384,138
327,-1428,129
313,-1477,120
287,-1523,112
262,-1565,103
233,-1600,91
199,-1628,82
166,-1648,71
130,-1658,57
92,-1663,46
55,-1668,33
22,-1665,22
-4,-1665,12
-32,-1664,7
-60,-1662,-1
-88,-1664,-6
-115,-1665,-18
-145,-1666,-27
-171,-1665,-40
-193,-1665,-58
-207,-1662,-75
-216,-1655,-94
-211,-1639,-113
-201,-1617,-135
-182,-1586,-158
-163,-1552,-179
-141,-1510,-200
-126,-1468,-218
-107,-1421,-231
-92,-1376,-239
-87,-1331,-245
-84,-1286,-244
-86,-1246,-237
-94,-1217,-226
-98,-1200,-214
-88,-1186,-213
-64,-1176,-213
-25,-1167,-221
20,-1154,-228
71,-1140,-240
123,-1118,-252
183,-1101,-265
243,-1077,-276
299,-1054,-285
349,-1028,-292
398,-1000,-298
433,-962,-300
451,-919,-300
453,-879,-294
454,-837,-288
448,-793,-286
447,-758,-280
447,-720,-275
451,-687,-274
462,-652,-271
472,-617,-268
488,-584,-270
502,-553,-266
521,-523,-267
541,-496,-264
566,-471,-266
589,-445,-265
615,-418,-269
639,-399,-272
666,-378,-272
688,-360,-274
708,-342,-276
731,-329,-276
747,-313,-276
759,-301,-271
774,-288,-271
792,-275,-271
806,-258,-271
822,-243,-272
833,-224,-273
840,-198,-278
850,-176,-287
856,-156,-294
860,-132,-304
864,-104,-314
870,-79,-326
873,-56,-341
872,-33,-352
869,-9,-366
871,14,-373
870,38,-386
862,63,-395
855,93,-402
849,116,-409
838,140,-413
829,160,-415
818,180,-415
806,190,-413
794,198,-408
783,210,-399
770,212,-386
756,209,-377
744,196,-363
732,181,-349
728,164,-335
722,138,-321
721,116,-307
720,95,-299
722,73,-293
732,51,-290
744,35,-292
757,19,-299
772,7,-304
791,-1,-316
816,-8,-327
837,-12,-338
858,-16,-348
877,-22,-357
893,-23,-365
907,-21,-372
920,-18,-374
932,-10,-377
950,-10,-384
966,-8,-385
985,-5,-390
1002,-3,-391
1020,-5,-393
1040,-5,-396
1060,-8,-394
1073,-8,-391
1085,-4,-390
1091,0,-390
1090,4,-389
1097,7,-389
1097,21,-387
1095,33,-384
1090,49,-379
1081,62,-374
1071,69,-370
1065,74,-364
1060,68,-363
1053,56,-363
1053,43,-362
1054,21,-370
1055,-4,-378
1060,-37,-387
1068,-72,-401
1070,-104,-414
1080,-135,-424
1089,-155,-434
1099,-174,-445
1104,-187,-458
1106,-197,-467
1109,-210,-475
1108,-225,-488
1104,-245,-498
1100,-267,-511
1096,-294,-522
1093,-322,-533
1091,-350,-546
1089,-375,-555
1091,-399,-568
1088,-422,-570
1084,-433,-571
1081,-451,-570
1076,-466,-566
1072,-476,-566
1068,-486,-563
1062,-495,-562
1051,-497,-568
1042,-504,-569
1028,-513,-571
1018,-525,-579
1003,-533,-578
985,-542,-583
964,-548,-578
945,-551,-572
926,-549,-568
909,-541,-557
894,-535,-548
882,-530,-542
875,-520,-531
871,-502,-527
870,-489,-516
872,-476,-508
875,-468,-500
882,-460,-488
884,-451,-482
893,-443,-472
897,-444,-463
909,-451,-452
916,-460,-441
925,-474,-429
930,-484,-415
931,-492,-402
933,-495,-388
936,-491,-376
940,-475,-364
940,-456,-350
946,-438,-338
948,-421,-326
946,-406,-319
954,-393,-308
960,-389,-303
965,-385,-290
972,-382,-285
980,-376,-280
990,-373,-274
999,-368,-271
1013,-355,-269
1024,-335,-271
1033,-311,-269
1042,-282,-265
1048,-250,-259
1058,-227,-256
1066,-204,-250
1078,-182,-241
1085,-160,-231
1096,-139,-222
1104,-120,-211
1106,-106,-199
1112,-89,-184
1112,-67,-176
1115,-42,-164
1119,-19,-149
1120,5,-141
1121,27,-126
1120,42,-110
1124,55,-96
1123,64,-82
1125,71,-71
1126,67,-58
1125,60,-39
1122,51,-30
1117,39,-21
1110,22,-14
1103,5,-7
1099,-8,-2
1097,-29,-1
1092,-50,-1
1090,-68,0
1093,-87,1
1098,-103,-6
1106,-113,-8
1108,-121,-11
1106,-122,-7
1101,-115,-1
1086,-102,4
1075,-92,12
1057,-81,18
1037,-66,26
1016,-50,29
995,-33,34
972,-13,36
953,7,33
934,31,27
918,57,19
906,79,12
897,106,2
892,135,-11
891,160,-21
883,185,-37
877,207,-48
866,221,-57
851,235,-71
833,240,-75
812,244,-86
793,239,-94
770,230,-98
750,208,-113
735,188,-124
722,158,-138
715,124,-157
714,91,-173
720,54,-186
726,14,-201
738,-23,-218
755,-54,-227
775,-84,-238
799,-117,-247
822,-143,-259
845,-174,-265
870,-206,-281
892,-229,-291
913,-251,-308
929,-273,-324
946,-294,-343
966,-313,-369
968,-322,-385
977,-333,-402
981,-340,-422
985,-340,-437
980,-334,-455
973,-320,-466
961,-302,-476
940,-274,-484
914,-245,-492
883,-211,-499
851,-180,-501
811,-148,-503
762,-123,-508
707,-92,-506
654,-69,-505
600,-52,-504
552,-39,-501
505,-28,-499
459,-23,-498
415,-19,-499
378,-23,-499
352,-20,-503
330,-26,-507
318,-34,-509
312,-37,-511
306,-34,-518
303,-44,-521
303,-54,-523
300,-63,-525
295,-78,-531
290,-86,-525
278,-91,-519
267,-99,-511
253,-109,-503
241,-123,-487
225,-134,-475
206,-142,-463
185,-155,-453
158,-161,-447
130,-168,-443
105,-166,-437
77,-162,-437
53,-157,-431
33,-149,-429
14,-142,-429
0,-136,-428
-11,-130,-426
-21,-127,-426
-32,-123,-423
-42,-121,-421
-54,-118,-422
-65,-115,-422
-82,-96,-433
-100,-78,-442
-121,-65,-449
-146,-57,-460
-175,-47,-468
-201,-37,-478
-229,-35,-491
-254,-37,-497
-279,-37,-508
-299,-44,-512
-321,-50,-519
-337,-55,-529
-353,-60,-534
-367,-56,-550
-381,-56,-566
-390,-58,-579
-402,-63,-598
-406,-72,-621
-411,-76,-646
-410,-78,-668
-404,-75,-698
-394,-77,-725
-385,-73,-752
-377,-76,-778
-365,-78,-805
-351,-84,-829
-341,-89,-853
-332,-90,-876
-323,-89,-901
-311,-92,-922
-296,-97,-946
-278,-104,-964
-252,-109,-981
-226,-110,-992
-202,-113,-1004
-169,-112,-1008
-135,-111,-1010
-105,-109,-1010
-74,-113,-1008
-39,-111,-999
-3,-115,-991
33,-115,-986
72,-117,-972
110,-119,-959
144,-116,-937
177,-112,-916
200,-103,-888
219,-91,-856
231,-73,-827
230,-50,-793
223,-29,-761
208,-9,-728
192,11,-699
172,25,-670
153,39,-643
138,52,-618
127,60,-591
119,67,-569
125,71,-548
133,70,-530
146,68,-519
166,62,-504
192,62,-493
212,64,-482
234,66,-470
255,63,-456
275,55,-451
295,46,-445
314,39,-437
329,29,-433
342,16,-429
353,0,-427
366,-12,-422
377,-26,-419
388,-36,-415
404,-48,-407
419,-53,-406
439,-61,-397
458,-62,-386
481,-59,-375
502,-49,-365
526,-34,-348
548,-17,-333
568,-1,-317
581,12,-301
593,25,-286
603,38,-270
610,47,-256
615,57,-249
618,71,-239
626,82,-235
630,105,-234
636,129,-233
641,159,-233
645,183,-231
649,210,-225
658,232,-217
664,242,-211
676,254,-203
683,260,-195
690,256,-190
695,250,-187
699,245,-187
703,242,-187
707,238,-190
709,238,-203
715,239,-214
715,244,-226
718,251,-241
719,264,-252
726,273,-267
732,286,-283
737,294,-295
746,306,-309
757,308,-315
767,310,-322
778,311,-333
787,309,-343
792,305,-350
799,295,-358
806,284,-372
813,270,-379
816,254,-391
820,242,-403
824,231,-418
827,223,-431
834,226,-442
846,239,-449
857,252,-456
875,262,-459
887,268,-460
906,270,-462
919,271,-461
937,265,-460
951,257,-454
966,252,-448
982,249,-441
1001,244,-436
1021,248,-429
1040,259,-423
1057,280,-412
1075,300,-399
1089,320,-390
1107,335,-371
1124,346,-359
1130,361,-343
1139,372,-325
1144,387,-311
1146,399,-302
1154,415,-290
1156,432,-283
1164,455,-281
1171,478,-280
1180,503,-282
1190,527,-286
1204,553,-289
1213,577,-296
1227,603,-300
1240,625,-306
1255,648,-306
1273,670,-304
1289,691,-303
1308,711,-303
1324,726,-300
1343,742,-300
1367,751,-300
1389,765,-295
1412,782,-290
1435,800,-288
1461,823,-289
1488,846,-289
1510,872,-288
1540,891,-293
1561,912,-289
1577,928,-289
1597,953,-286
1613,980,-283
1623,997,-277
1631,1012,-270
1639,1026,-261
1643,1045,-251
1650,1058,-238
1657,1073,-228
1664,1088,-219
1674,1101,-207
1691,1107,-199
1718,1112,-188
1748,1123,-179
1780,1137,-168
1814,1146,-154
1856,1156,-140
1896,1167,-124
1947,1180,-105
1991,1199,-87
2038,1221,-66
2074,1239,-41
2104,1255,-14
2130,1271,3
2140,1288,25
2146,1300,45
2145,1311,61
2137,1319,71
2126,1321,82
2117,1320,84
2109,1316,80
2108,1315,75
2114,1309,66
2121,1310,52
2136,1307,40
2150,1304,26
2164,1301,11
2184,1298,0
2210,1293,-11
2239,1287,-26
2265,1287,-31
2287,1287,-36
2306,1283,-37
2321,1278,-36
2327,1270,-38
2331,1268,-35
2325,1257,-31
2322,1253,-32
2319,1245,-31
2320,1229,-30
2325,1216,-32
2334,1201,-32
2349,1189,-29
2359,1179,-26
2370,1177,-26
2380,1180,-20
2395,1185,-18
2406,1197,-13
2415,1205,-9
2422,1211,-5
2430,1212,2
2436,1202,7
2439,1191,16
2438,1171,26
2439,1144,35
2436,1120,46
2441,1094,52
2444,1068,58
2446,1045,64
2453,1021,73
2457,1001,81
2458,985,90
2456,970,99
2446,960,107
2424,953,111
2402,941,121
2377,939,121
2353,938,127
2331,937,128
2312,931,124
2292,924,123
2272,920,117
2256,920,108
2240,921,102
2228,920,89
2219,924,80
2212,922,72
2208,924,58
2205,933,48
2203,944,42
2207,953,27
2204,969,20
2209,986,11
2209,1000,2
2210,1015,-1
2208,1027,-6
2205,1042,-10
2198,1055,-14
2190,1065,-16
2179,1072,-24
2173,1080,-27
2163,1084,-31
2162,1088,-33
2158,1101,-38
2151,1104,-42
2150,1108,-46
2151,1108,-52
2152,1108,-48
2149,1108,-55
2146,1107,-53
2138,1112,-52
2119,1117,-48
2103,1123,-48
2088,1124,-42
2069,1120,-39
2050,1115,-34
2026,1106,-27
2007,1093,-22
1986,1080,-21
1973,1064,-17
1959,1054,-16
1953,1047,-12
1949,1041,-12
1949,1035,-8
1947,1030,1
1946,1027,9
1945,1028,14
1943,1028,23
1944,1030,36
1945,1029,49
1945,1023,59
1951,1016,74
1958,1006,86
1967,993,99
1976,982,115
1978,971,130
1979,960,148
1975,952,165
1971,942,183
1958,940,204
1949,936,226
1941,936,243
1932,937,266
1926,937,282
1926,939,299
1923,937,313
1929,936,324
1943,927,330
1958,922,337
1976,916,342
1997,910,348
2019,904,356
2043,898,364
2065,892,375
2084,885,382
2108,873,395
2134,861,409
2154,847,422
2174,834,433
2189,819,446
2205,805,460
2213,790,473
2227,778,482
2235,767,491
2242,761,497
2249,748,502
2258,735,505
2264,718,510
2267,698,512
2267,675,517
2266,651,523
2256,622,525
2249,589,536
2234,552,538
2217,518,548
2196,482,556
2171,446,564
2142,412,571
2111,380,578
2073,357,579
2036,334,584
1997,315,584
1954,300,584
1912,288,581
1868,278,581
1826,265,580
1784,252,570
1744,242,559
1708,228,554
1674,220,544
1642,215,530
1615,205,518
1589,197,504
1565,186,493
1540,183,480
1518,176,472
1498,173,465
1470,172,453
1443,174,443
1416,173,437
1381,174,432
1338,175,437
1301,177,431
1257,178,435
1211,181,436
1163,179,434
1114,177,435
1072,168,432
1024,159,427
990,146,428
955,128,422
923,109,420
894,95,414
868,77,414
840,59,412
818,38,411
798,24,412
776,9,410
754,-3,408
736,-11,407
719,-9,403
699,-8,400
683,0,391
666,8,386
650,12,378
639,18,371
624,29,364
609,34,356
597,35,349
584,33,340
571,27,335
562,18,334
542,1,331
523,-13,335
502,-33,339
478,-57,343
455,-75,349
440,-89,352
426,-103,353
419,-114,350
418,-131,353
420,-143,352
420,-157,356
420,-173,361
421,-187,362
426,-208,373
426,-224,378
424,-239,387
418,-259,396
409,-276,407
396,-292,421
384,-315,431
368,-338,440
355,-355,446
342,-368,451
327,-379,451
317,-388,453
306,-391,448
295,-398,446
284,-402,439
275,-401,432
263,-398,424
255,-394,413
249,-380,405
242,-372,390
244,-362,379
244,-355,366
244,-349,355
248,-342,342
251,-335,332
253,-330,324
257,-324,316
258,-315,313
261,-312,308
259,-308,312
253,-306,310
249,-298,317
241,-294,320
231,-277,321
225,-264,322
219,-253,325
211,-238,327
210,-227,328
207,-216,329
205,-209,327
205,-202,331
204,-193,329
203,-193,329
199,-196,333
191,-192,330
186,-194,333
178,-192,335
171,-189,330
167,-186,328
167,-180,321
168,-176,317
176,-175,312
188,-179,306
198,-179,304
214,-186,302
233,-187,305
251,-194,308
272,-204,317
293,-211,323
310,-216,333
330,-223,338
348,-226,349
361,-220,357
368,-220,368
379,-219,377
385,-220,380
392,-212,387
392,-212,392
395,-208,400
394,-207,397
399,-205,401
398,-206,402
396,-210,403
393,-210,406
387,-211,407
384,-210,409
380,-210,410
372,-207,407
369,-205,404
367,-208,407
366,-207,401
368,-210,404
368,-218,407
375,-223,413
380,-228,410
389,-234,411
400,-235,413
415,-241,414
427,-243,411
439,-244,414
443,-242,417
448,-240,415
449,-234,417
444,-230,417
435,-225,420
422,-213,418
406,-206,415
392,-198,412
377,-189,409
363,-183,406
348,-176,404
336,-174,398
323,-170,397
307,-166,396
291,-164,397
275,-166,397
259,-169,401
242,-174,401
223,-179,399
211,-185,399
196,-193,397
184,-202,387
177,-207,380
174,-218,369
176,-233,364
174,-243,349
179,-255,337
184,-265,325
186,-274,319
190,-281,310
190,-280,300
186,-275,285
188,-276,277
190,-271,266
191,-266,259
190,-260,248
191,-253,236
193,-249,226
196,-243,214
199,-241,201
200,-246,188
208,-249,172
213,-252,155
219,-261,143
226,-268,133
227,-278,119
228,-286,109
228,-300,106
220,-313,96
210,-332,96
196,-351,92
181,-371,92
168,-395,88
148,-415,79
131,-435,76
119,-452,64
105,-464,55
95,-475,39
82,-482,23
69,-482,10
56,-480,-4
43,-476,-20
31,-469,-37
16,-459,-49
-6,-445,-67
-22,-427,-80
-40,-407,-95
-62,-381,-112
-84,-352,-127
-106,-324,-142
-129,-291,-160
-151,-256,-176
-171,-220,-195
-186,-183,-210
-203,-137,-231
-217,-85,-248
-233,-35,-268
-247,16,-290
-259,71,-312
-266,122,-327
-275,176,-346
-281,231,-361
-286,276,-379
-287,319,-392
-295,360,-400
-294,395,-404
-292,427,-412
-282,450,-421
-264,467,-428
-235,481,-432
-200,486,-438
-159,494,-442
-120,499,-446
-90,497,-446
-72,493,-445
-65,493,-442
-67,501,-439
-87,513,-430
-120,513,-416
-167,503,-401
-221,476,-379
-272,435,-360
-319,381,-342
-361,322,-329
-389,247,-323
-408,176,-321
-419,108,-322
-432,63,-336
-441,48,-360
-445,39,-388
-434,26,-414
-417,-1,-438
-399,-42,-447
-387,-85,-441
-377,-125,-427
-368,-164,-405
-362,-199,-371
-353,-229,-326
-340,-251,-277
-323,-275,-229
-308,-313,-171
-291,-359,-115
-277,-415,-62
-268,-484,-14
-260,-562,28
-252,-646,59
-242,-728,84
-226,-809,106
-210,-880,113
-186,-940,110
-159,-987,100
-131,-1014,83
-104,-1027,61
-79,-1026,38
-64,-1016,13
-51,-1001,-5
-39,-974,-27
-27,-944,-45
-16,-910,-61
-7,-870,-78
-2,-825,-96
-3,-778,-107
-2,-740,-113
0,-698,-121
-3,-657,-124
-9,-614,-124
-16,-568,-124
-24,-515,-122
-39,-462,-120
-51,-406,-117
-56,-348,-113
-59,-293,-110
-54,-230,-115
-48,-171,-114
-39,-118,-107
-27,-60,-98
-16,-4,-90
-1,47,-76
17,99,-64
30,145,-50
43,183,-35
48,218,-15
53,256,0
57,284,18
58,313,33
59,341,44
62,370,52
63,400,57
63,437,59
63,473,56
68,515,49
73,555,41
80,599,28
83,644,12
88,687,-7
85,727,-27
84,755,-45
75,773,-61
65,780,-79
52,780,-95
51,777,-107
47,767,-120
50,758,-134
55,748,-158
59,748,-183
60,752,-205
50,752,-237
36,736,-265
18,717,-304
-13,679,-333
-60,617,-362
-123,525,-387
-201,401,-406
-281,251,-426
-358,80,-449
-437,-105,-462
-519,-288,-472
-606,-467,-468
-697,-646,-450
-784,-822,-429
-859,-995,-402
-906,-1190,-376
-918,-1403,-351
-907,-1607,-324
-889,-1773,-291
-874,-1903,-250
-856,-2011,-206
-836,-2092,-164
-816,-2149,-121
-799,-2181,-76
-790,-2181,-34
-783,-2154,9
-776,-2108,50
-782,-2050,89
-796,-1983,121
-816,-1914,149
-837,-1851,159
-849,-1789,151
-866,-1727,111
-886,-1660,52
-905,-1582,-32
-924,-1500,-111
-946,-1409,-184
-959,-1317,-243
-977,-1218,-292
-992,-1124,-315
-1003,-1029,-330
-1011,-940,-320
-1015,-855,-305
-1006,-770,-278
-998,-684,-242
-981,-602,-198
-971,-518,-142
-961,-443,-78
-946,-370,-7
-930,-301,70
-904,-237,143
-873,-176,214
-837,-118,278
-796,-65,334
-748,-23,374
-697,15,407
-643,48,425
-591,75,435
-539,96,434
-488,115,427
-438,134,407
-398,156,384
-353,174,355
-311,194,328
-269,214,291
-228,232,258
-189,252,221
-150,271,179
-107,285,141
-65,295,104
-30,305,68
7,310,38
47,333,6
87,361,-16
136,402,-38
181,440,-56
238,475,-72
298,500,-85
361,514,-92
413,508,-93
464,480,-86
513,442,-81
553,386,-69
580,320,-55
590,237,-37
583,127,-14
562,-3,11
525,-150,36
481,-306,66
422,-466,101
373,-630,135
323,-794,165
286,-949,180
264,-1093,195
255,-1225,192
259,-1337,183
272,-1439,171
285,-1537,155
297,-1631,141
296,-1718,127
297,-1781,115
294,-1832,104
287,-1856,89
282,-1860,78
270,-1842,65
267,-1814,54
259,-1778,41
255,-1732,31
254,-1683,23
253,-1635,17
244,-1583,11
224,-1527,13
208,-1473,14
189,-1411,19
167,-1338,20
147,-1251,26
132,-1154,33
109,-1041,39
82,-920,48
56,-795,62
31,-673,68
8,-546,77
-10,-431,78
-23,-323,76
-20,-220,72
-15,-126,60
0,-41,42
22,36,24
50,102,1
83,160,-21
121,212,-43
157,257,-58
190,295,-71
218,324,-71
241,346,-74
259,359,-62
279,366,-49
296,371,-29
304,378,-10
308,388,14
306,399,39
301,421,61
292,453,74
284,489,90
269,528,97
254,573,96
232,621,88
204,661,81
176,701,71
153,740,54
137,786,32
128,835,6
126,897,-25
132,964,-60
142,1053,-96
154,1136,-127
156,1201,-151
145,1239,-163
125,1239,-166
94,1212,-167
72,1151,-164
54,1070,-161
39,969,-160
22,845,-157
-1,711,-150
-33,576,-143
-78,442,-129
-139,304,-109
-207,176,-93
-270,52,-83
-321,-68,-75
-354,-195,-78
-361,-333,-85
-351,-472,-104
-320,-617,-119
-276,-764,-137
-221,-914,-157
-155,-1057,-177
-83,-1203,-189
-15,-1327,-197
44,-1423,-201
98,-1483,-192
140,-1512,-176
172,-1517,-157
199,-1504,-127
217,-1473,-101
229,-1431,-74
241,-1385,-52
257,-1334,-29
261,-1285,-7
263,-1235,9
252,-1185,22
248,-1130,29
252,-1057,31
257,-970,19
269,-872,4
287,-764,-19
309,-641,-49
337,-518,-79
357,-396,-105
365,-278,-129
368,-171,-153
353,-72,-169
333,18,-184
307,105,-195
271,185,-204
236,260,-207
203,332,-218
168,397,-222
137,455,-226
110,513,-231
89,564,-238
75,612,-238
62,651,-243
52,689,-244
48,719,-247
49,746,-248
50,769,-245
52,789,-243
59,802,-241
72,815,-239
88,821,-240
109,826,-235
130,827,-237
151,832,-225
168,841,-222
187,853,-215
203,872,-210
221,902,-201
237,932,-188
247,969,-181
258,1015,-169
280,1067,-154
308,1123,-143
341,1168,-133
386,1206,-125
438,1237,-123
493,1261,-117
539,1262,-105
579,1237,-86
611,1182,-66
642,1112,-56
666,1024,-55
674,923,-53
669,804,-39
651,673,-19
632,539,5
603,408,29
573,287,51
546,181,59
533,90,64
531,5,63
548,-80,58
573,-178,53
590,-290,54
608,-418,49
628,-543,41
647,-666,35
655,-775,30
654,-863,38
640,-930,49
616,-983,64
587,-1027,83
556,-1058,95
517,-1081,113
471,-1106,126
419,-1128,140
362,-1152,152
299,-1166,159
235,-1177,167
169,-1178,167
110,-1173,168
56,-1165,166
13,-1154,164
-16,-1139,154
-39,-1120,147
-44,-1093,132
-37,-1061,117
-23,-1030,102
-2,-998,85
15,-970,66
34,-951,50
50,-935,34
62,-921,21
70,-910,4
77,-897,-12
83,-889,-26
89,-877,-42
96,-862,-51
99,-842,-57
96,-826,-67
92,-799,-70
90,-763,-70
85,-723,-72
77,-686,-68
64,-645,-66
48,-614,-63
32,-582,-52
10,-552,-41
-7,-525,-31
-23,-501,-15
-36,-480,0
-46,-460,17
-56,-446,36
-66,-436,55
-76,-424,69
-83,-407,87
-91,-389,106
-91,-358,121
-91,-324,135
-94,-295,151
-95,-268,161
-96,-243,170
-103,-229,180
-103,-214,185
-104,-208,194
-106,-216,202
-104,-233,206
-105,-260,208
-99,-292,207
-81,-325,202
-59,-351,194
-27,-363,182
6,-362,173
50,-350,163
92,-342,152
137,-323,144
177,-314,138
216,-314,134
251,-329,133
275,-361,128
294,-411,133
313,-463,129
328,-513,134
339,-554,140
353,-580,149
355,-598,157
358,-610,166
364,-607,173
369,-614,179
382,-610,177
394,-606,170
412,-606,157
429,-603,135
451,-605,108
473,-607,81
490,-604,50
499,-596,24
500,-581,-11
498,-566,-38
492,-553,-61
478,-542,-79
462,-540,-95
439,-533,-106
431,-520,-118
410,-510,-129
390,-504,-145
374,-504,-172
367,-494,-205
365,-478,-242
368,-459,-289
371,-444,-336
379,-423,-388
388,-401,-440
407,-371,-492
432,-333,-539
462,-289,-582
495,-251,-616
531,-211,-642
558,-177,-656
567,-132,-668
572,-82,-673
560,-15,-672
542,61,-674
518,142,-677
492,225,-687
472,301,-700
455,361,-722
444,415,-747
439,462,-770
443,501,-799
455,528,-824
478,534,-848
508,535,-873
546,530,-894
584,540,-917
619,562,-938
648,593,-954
666,632,-965
668,676,-979
658,725,-991
629,784,-1004
592,845,-1021
545,906,-1035
502,963,-1053
459,1014,-1075
437,1056,-1098
427,1091,-1116
423,1118,-1133
436,1146,-1144
448,1171,-1147
465,1201,-1139
482,1232,-1134
495,1258,-1122
500,1284,-1110
505,1305,-1101
506,1326,-1086
499,1345,-1077
490,1364,-1059
477,1381,-1045
463,1396,-1030
447,1407,-1019
430,1415,-1006
414,1426,-992
403,1430,-979
394,1443,-965
386,1462,-958
384,1473,-948
381,1498,-955
374,1540,-966
373,1585,-983
370,1619,-1003
370,1647,-1019
368,1665,-1034
357,1678,-1053
346,1694,-1073
327,1710,-1088
306,1719,-1099
279,1724,-1110
262,1736,-1117
255,1756,-1119
248,1786,-1126
253,1816,-1124
265,1862,-1122
275,1915,-1122
298,1966,-1120
328,2013,-1110
358,2054,-1096
391,2081,-1088
428,2102,-1076
476,2111,-1067
530,2107,-1061
581,2091,-1057
629,2063,-1050
672,2027,-1035
707,1984,-1024
739,1930,-1011
764,1866,-993
786,1796,-977
800,1719,-958
816,1644,-935
823,1576,-911
823,1510,-882
816,1444,-856
799,1386,-829
779,1337,-801
755,1295,-772
736,1257,-744
716,1226,-723
700,1198,-703
695,1174,-685
696,1154,-670
699,1139,-657
711,1129,-647
730,1121,-639
751,1109,-634
780,1090,-626
810,1063,-622
844,1034,-620
893,1007,-622
951,983,-621
1011,958,-617
1078,937,-608
1147,920,-600
1212,905,-593
1273,893,-586
1336,891,-575
1385,883,-562
1427,865,-552
1489,881,-530
1536,887,-517
1574,908,-509
1609,913,-497
1630,910,-484
1638,900,-472
1621,889,-456
1587,878,-443
1547,869,-434
1502,858,-436
1455,844,-450
1412,836,-470
1364,836,-489
1316,842,-510
1266,851,-525
1208,871,-540
1155,893,-553
1093,912,-560
1030,923,-565
958,923,-564
891,908,-565
833,874,-568
786,825,-582
750,765,-590
723,702,-608
709,633,-616
704,575,-623
702,525,-622
702,483,-622
697,453,-618
698,434,-613
694,416,-612
696,400,-611
698,382,-616
698,359,-626
696,336,-622
675,318,-624
655,305,-619
625,293,-618
593,276,-612
562,254,-607
533,232,-604
511,207,-599
492,178,-583
477,153,-562
462,130,-541
449,107,-514
447,89,-483
450,73,-458
469,54,-440
503,22,-431
556,-4,-439
632,-36,-458
735,-63,-492
847,-90,-538
949,-100,-579
1028,-101,-605
1060,-82,-616
1044,-42,-604
998,-9,-587
925,17,-559
837,39,-530
744,52,-494
650,51,-469
559,29,-447
479,-5,-426
416,-53,-402
370,-111,-386
333,-171,-368
314,-240,-344
300,-307,-327
289,-366,-312
284,-407,-297
280,-436,-285
268,-445,-274
244,-438,-257
220,-410,-236
192,-369,-211
165,-320,-186
139,-266,-170
111,-216,-165
74,-173,-169
34,-137,-186
-15,-116,-209
-71,-113,-240
-127,-129,-273
-175,-147,-312
-200,-171,-349
-203,-177,-378
-187,-185,-395
-154,-189,-395
-110,-201,-391
-69,-238,-381
-36,-293,-371
-9,-351,-361
11,-405,-351
36,-454,-340
59,-504,-336
86,-546,-341
126,-590,-345
177,-621,-348
235,-656,-346
285,-686,-333
324,-708,-317
355,-720,-289
371,-725,-260
371,-712,-232
351,-695,-207
311,-674,-187
256,-647,-177
179,-618,-169
109,-584,-172
48,-548,-175
-2,-501,-173
-39,-449,-161
-68,-386,-147
-88,-315,-131
-111,-236,-112
-141,-162,-94
-179,-91,-75
-219,-21,-67
-254,39,-65
-281,93,-73
-305,148,-80
-314,183,-88
-313,209,-97
-307,229,-99
-296,209,-97
-292,168,-89
-291,110,-81
-307,57,-75
-336,46,-65
-392,16,-55
-458,-28,-50
-537,-63,-41
-631,-80,-28
-725,-82,-7
-812,-76,9
-899,-67,23
-975,-58,32
-1047,-49,35
-1107,-37,32
-1168,-29,22
-1221,-19,7
-1268,-16,-9
-1307,-8,-29
-1324,-4,-36
-1349,2,-30
-1379,14,-13
-1419,15,20
-1464,12,52
-1525,1,85
-1593,-18,116
-1676,-42,140
-1761,-66,160
-1836,-101,165
-1893,-117,157
-1930,-128,147
-1952,-112,139
-1965,-84,141
-1972,-28,166
-1977,34,202
-1981,95,246
-1990,134,283
-1998,133,317
-2006,101,332
-2004,42,329
-1991,-33,313
-1956,-123,286
-1902,-221,253
-1825,-322,218
-1727,-430,182
-1616,-547,151
-1505,-657,132
-1401,-758,123
-1303,-828,126
-1221,-872,133
-1154,-885,151
-1100,-860,175
-1065,-813,197
-1033,-752,214
-1012,-685,226
-990,-617,233
-963,-553,243
-933,-498,258
-907,-447,262
-880,-405,266
-852,-363,258
-817,-321,243
-780,-279,223
-746,-241,193
-718,-213,166
-698,-219,133
-687,-243,113
-684,-274,92
-683,-312,79
-675,-352,75
-666,-391,82
-660,-423,106
-650,-447,138
-636,-452,177
-609,-469,225
-585,-457,273
-545,-435,322
-517,-410,370
-496,-373,415
-495,-344,459
-515,-300,497
-545,-269,531
-593,-221,560
-647,-173,579
-707,-126,598
-763,-83,620
-823,-48,638
-878,-17,656
-920,8,669
-949,35,678
-969,64,687
-973,83,700
-965,102,709
-943,117,721
-923,139,733
-900,158,752
-886,176,774
-874,194,801
-865,209,822
-862,229,849
-863,258,875
-870,285,909
-877,308,943
-887,327,975
-915,334,1008
-949,346,1037
-991,355,1064
-1036,372,1078
-1084,387,1084
-1132,404,1088
-1179,419,1083
-1222,432,1075
-1262,426,1066
-1307,416,1061
-1351,381,1062
-1391,329,1057
-1427,225,1049
-1474,120,1038
-1525,-17,1018
-1569,-171,990
-1590,-333,956
-1603,-505,902
-1589,-708,844
-1555,-919,781
-1503,-1116,717
-1449,-1296,658
-1414,-1477,615
-1400,-1608,582
-1413,-1683,560
-1439,-1693,536
-1480,-1649,508
-1534,-1586,483
-1598,-1468,451
-1675,-1331,417
-1756,-1173,371
-1829,-1035,323
-1882,-896,262
-1914,-777,211
-1923,-668,162
-1902,-585,122
-1850,-502,92
-1787,-416,68
-1710,-344,66
-1633,-286,70
-1554,-226,92
-1470,-174,127
-1386,-123,168
-1300,-67,208
-1209,0,245
-1109,69,277
-1004,129,292
-896,173,291
-782,201,282
-668,212,259
-563,217,238
-457,210,209
-358,201,187
-269,191,167
-193,185,153
-122,181,143
-56,187,136
4,199,133
42,221,127
73,252,120
88,285,117
89,330,108
77,381,96
66,440,87
47,504,78
28,569,74
9,635,73
-5,686,78
-11,739,85
-7,799,89
8,863,94
24,930,113
47,997,141
70,1060,171
86,1117,209
97,1161,250
101,1196,288
95,1209,321
83,1209,345
67,1187,362
45,1162,368
16,1133,368
-25,1115,364
-64,1104,359
-97,1095,347
-113,1105,331
-127,1126,309
-133,1161,285
-134,1199,253
-141,1243,217
-152,1285,180
-169,1331,148
-189,1371,112
-215,1393,89
-238,1402,71
-250,1392,59
-251,1363,54
-243,1323,57
-231,1283,72
-217,1248,96
-208,1220,131
-195,1217,166
-189,1232,197
-190,1278,220
-201,1344,235
-221,1433,244
-252,1528,243
-283,1617,236
-317,1698,227
-352,1759,216
-381,1810,199
-393,1850,186
-389,1875,168
-372,1882,152
-336,1890,134
-293,1897,118
-255,1913,105
-222,1937,94
-192,1970,90
-166,2005,89
-151,2055,82
-139,2116,87
-141,2185,89
-140,2267,94
-155,2371,101
-164,2474,98
-172,2584,95
-170,2687,84
-163,2778,82
-148,2851,87
-125,2903,89
-93,2927,95
-58,2932,109
-26,2937,123
-6,2939,142
3,2940,160
3,2945,180
-12,2958,198
-33,2964,209
-55,2916,208
-51,2781,183
-31,2612,135
6,2494,74
55,2464,11
105,2506,-47
144,2598,-88
170,2728,-111
183,2874,-128
199,3046,-151
222,3247,-187
248,3520,-233
269,3886,-294
300,4237,-372
333,4556,-461
374,4839,-557
413,5062,-655
441,5234,-753
444,5352,-835
419,5395,-895
366,5371,-926
298,5292,-925
218,5194,-900
133,5082,-864
52,4975,-827
-18,4870,-796
-75,4776,-780
-137,4670,-769
-197,4556,-770
-255,4435,-784
-293,4323,-805
-316,4209,-825
-323,4107,-844
-318,4009,-858
-301,3942,-866
-276,3883,-850
-241,3875,-825
-200,3898,-778
-148,3942,-731
-76,3995,-682
-15,4023,-646
33,4021,-615
62,3990,-594
80,3915,-583
92,3801,-577
83,3669,-569
69,3547,-557
50,3439,-537
24,3342,-517
-5,3259,-490
-40,3196,-462
-72,3160,-435
-98,3142,-416
-111,3121,-407
-116,3092,-405
-130,3041,-400
-151,2955,-407
-182,2831,-419
-208,2679,-429
-239,2509,-429
-270,2325,-428
-294,2134,-422
-313,1945,-408
-318,1767,-384
-306,1607,-350
-292,1466,-306
-268,1347,-254
-234,1262,-198
-205,1215,-151
-191,1168,-104
-188,1128,-71
-203,1098,-52
-219,1113,-45
-244,1143,-49
-263,1115,-54
-289,1099,-61
-315,1071,-76
-332,1026,-82
-341,997,-81
-345,969,-78
-342,942,-68
-336,909,-51
-328,880,-43
-321,850,-36
-309,812,-31
-298,769,-23
-296,720,-21
-299,672,-15
-305,633,-15
-310,596,-20
-306,571,-33
-298,539,-50
-289,501,-71
-274,463,-90
-261,422,-108
-246,381,-118
-238,349,-120
-235,314,-122
-234,292,-117
-234,274,-103
-223,258,-81
-220,244,-65
-217,233,-51
-209,223,-40
-195,219,-34
-174,213,-33
-155,205,-34
-132,193,-44
-109,187,-52
-79,179,-60
-60,178,-65
-41,179,-69
-31,195,-64
-29,208,-56
-34,226,-53
-39,252,-55
-44,286,-55
-51,310,-53
-57,316,-53
-66,318,-59
-75,308,-67
-82,294,-75
-80,268,-80
-71,239,-84
-56,219,-89
-38,200,-83
-23,188,-86
-12,181,-86
-3,170,-82
2,167,-81
-8,161,-82
-19,140,-83
-36,106,-86
-50,79,-84
-63,54,-84
-72,46,-90
-69,54,-88
-70,77,-89
-62,89,-93
-49,103,-96
-32,110,-95
-16,106,-91
2,103,-85
17,97,-78
22,91,-77
19,79,-73
19,69,-68
17,61,-64
15,56,-63
20,55,-64
23,56,-62
27,65,-60
41,64,-64
53,58,-56
63,50,-50
76,40,-46
88,36,-41
98,37,-39
112,48,-37
118,66,-34
128,100,-35
143,129,-34
160,156,-35
173,172,-33
176,178,-31
174,184,-30
172,188,-31
170,194,-28
170,211,-27
164,241,-18
159,285,-12
155,339,-1
155,400,12
154,460,24
152,520,39
148,565,56
136,595,73
126,609,90
118,604,113
112,580,129
120,537,147
124,483,163
136,430,179
149,385,180
156,364,173
163,371,158
167,392,142
167,424,120
161,458,105
158,492,89
159,512,81
168,522,71
184,519,66
205,489,69
241,440,79
275,374,96
314,290,123
352,196,154
388,99,187
419,4,213
441,-92,237
453,-182,260
459,-269,282
451,-339,307
426,-391,334
393,-423,355
353,-428,376
308,-406,385
259,-377,390
209,-332,382
167,-282,367
130,-235,349
93,-196,331
59,-168,310
26,-139,286
-3,-119,260
-30,-107,234
-53,-95,211
-70,-89,186
-83,-97,167
-91,-100,152
-90,-110,139
-89,-123,128
-84,-122,123
-66,-130,123
-52,-128,124
-39,-136,127
-19,-151,134
-2,-169,141
16,-180,150
40,-176,157
71,-170,160
98,-170,160
127,-141,167
160,-118,165
201,-99,165
244,-90,162
291,-92,161
349,-131,161
406,-126,158
471,-133,160
534,-147,165
587,-165,171
631,-202,182
662,-164,194
692,-193,210
689,-201,224
693,-237,245
662,-207,254
635,-220,266
601,-196,280
565,-188,292
528,-171,304
493,-150,313
458,-145,319
426,-130,320
392,-135,320
356,-145,312
327,-167,306
296,-176,295
266,-190,287
239,-194,270
204,-207,251
171,-214,229
132,-215,209
83,-213,189
34,-211,169
-17,-194,156
-65,-164,138
-108,-132,124
-147,-101,108
-188,-67,92
-217,-35,79
-241,-23,70
-259,-12,63
-275,9,56
-269,19,48
-266,22,42
-260,11,34
-255,3,28
-252,3,19
-243,6,10
-240,7,0
-234,11,-8
-230,19,-22
-231,30,-27
-234,36,-35
-237,36,-39
-247,29,-42
-252,20,-39
-257,9,-44
-268,-6,-51
-274,-19,-59
-288,-37,-62
-300,-51,-68
-314,-67,-79
-320,-77,-93
-313,-85,-111
-309,-88,-129
-292,-83,-147
-269,-73,-165
-249,-48,-181
-219,-20,-191
-197,8,-200
-183,28,-203
-171,52,-206
-160,58,-201
-156,52,-192
-150,50,-190
-138,39,-187
-126,23,-183
-123,21,-190
-130,45,-198
-141,681,-215
-90,219,-197
-114,242,-193
-127,281,-185
-145,261,-187
-155,223,-169
-168,184,-145
-183,145,-120
-197,109,-106
-200,85,-98
-198,77,-94
-185,80,-94
-167,95,-98
-141,102,-98
-113,111,-100
-89,116,-103
-68,115,-101
-57,112,-100
-48,106,-102
-51,102,-101
-57,91,-103
-70,86,-103
-88,76,-102
-105,70,-103
-121,58,-102
-131,42,-99
-135,26,-94
-127,9,-92
-109,-1,-95
-87,-14,-95
-67,-24,-99
-47,-32,-103
-31,-39,-105
-21,-39,-110
-13,-38,-117
-9,-23,-123
-7,-6,-125
-16,14,-133
-28,28,-129
-42,40,-125
-63,55,-125
-77,68,-117
-93,81,-110
-95,85,-101
-94,83,-96
-87,80,-88
-65,68,-85
-38,50,-78
-11,29,-77
18,6,-74
47,-18,-74
70,-39,-74
87,-51,-75
99,-65,-81
112,-68,-88
121,-67,-98
128,-65,-112
132,-61,-124
129,-53,-138
130,-47,-150
130,-40,-159
131,-39,-168
131,-42,-174
129,-45,-177
133,-51,-179
137,-54,-185
136,-59,-181
139,-62,-177
140,-65,-174
139,-67,-165
140,-69,-159
146,-62,-162
161,-64,-159
176,-61,-166
195,-64,-168
208,-72,-168
218,-80,-172
219,-83,-178
221,-94,-183
209,-107,-186
198,-116,-187
185,-132,-188
165,-143,-191
141,-156,-191
116,-170,-188
91,-185,-184
62,-195,-181
34,-205,-173
10,-216,-162
-16,-221,-152
-34,-227,-139
-56,-229,-130
-74,-228,-120
-88,-218,-107
-102,-203,-93
-116,-182,-73
-132,-162,-52
-148,-135,-30
-150,-113,-8
-157,-90,16
-146,-68,37
-132,-51,60
-114,-34,82
-95,-16,100
-73,-2,116
-48,7,127
-21,17,136
5,25,139
32,38,137
56,42,134
79,50,128
102,52,120
116,47,112
130,45,96
141,39,86
142,27,77
141,19,71
134,11,66
127,0,62
112,-11,61
93,-22,67
73,-29,69
51,-33,73
29,-42,80
13,-51,88
4,-63,90
-5,-65,91
-6,-68,92
-2,-72,92
3,-70,93
14,-67,90
25,-60,89
37,-59,85
49,-54,81
50,-46,76
50,-43,73
45,-38,70
38,-30,72
29,-29,74
20,-27,75
8,-23,76
0,-25,70
-8,-31,71
-19,-34,73
-28,-40,77
-37,-47,67
-41,-59,68
-47,-76,64
-55,-95,54
-67,-109,54
-79,-117,51
-101,-119,51
-123,-112,55
-144,-106,55
-158,-94,61
-171,-73,63
-174,-70,68
-174,-49,74
-168,-34,83
-158,-24,89
-138,-27,96
-123,-24,101
-104,-12,102
-79,-21,96
-59,-22,92
-42,-17,80
-28,-17,67
-15,-22,58
-7,-19,42
0,-12,30
6,-25,16
11,-28,1
16,-18,-13
15,-23,-24
14,-30,-32
8,-25,-36
-1,-17,-41
-14,-31,-40
-22,-26,-44
-38,-15,-46
-46,-21,-48
-53,-15,-46
-62,-9,-51
-71,-7,-54
-74,3,-61
-73,-4,-67
-73,-8,-78
-76,-31,-83
-83,-64,-85
-105,-110,-87
-118,-155,-88
-128,-197,-89
-130,-238,-92
-131,-264,-92
-124,-294,-87
-120,-321,-86
-119,-347,-89
-122,-373,-91
-125,-402,-97
-126,-436,-120
-111,-469,-142
-98,-496,-168
-81,-521,-182
-70,-539,-190
-65,-556,-191
-61,-570,-193
-59,-581,-190
-61,-588,-187
-63,-595,-186
-63,-597,-193
-70,-603,-203
-74,-609,-216
-77,-618,-230
-76,-629,-248
-73,-637,-266
-67,-632,-289
-64,-626,-308
-66,-612,-331
-80,-601,-350
-96,-586,-364
-113,-574,-385
-129,-556,-406
-138,-538,-428
-142,-528,-446
-150,-519,-459
-159,-517,-469
-173,-519,-483
-193,-524,-497
-213,-523,-521
-239,-516,-548
-260,-505,-580
-277,-493,-617
-280,-483,-659
-279,-465,-693
-273,-458,-721
-276,-465,-725
-299,-477,-717
-332,-490,-703
-372,-504,-692
-412,-519,-678
-450,-526,-670
-489,-526,-672
-515,-513,-681
-541,-491,-702
-556,-461,-723
-559,-428,-745
-556,-395,-765
-552,-365,-767
-555,-338,-765
-560,-310,-747
-562,-281,-727
-559,-256,-696
-547,-227,-656
-522,-193,-610
-488,-163,-549
-435,-129,-472
-376,-101,-377
-306,-81,-269
-222,-78,-147
-141,-83,-32
-62,-98,79
9,-118,166
65,-148,238
117,-170,298
157,-186,343
195,-198,389
234,-201,434
258,-198,479
277,-188,528
293,-175,575
299,-165,622
304,-158,661
304,-154,693
303,-144,712
300,-127,722
293,-104,733
271,-75,740
247,-55,749
220,-32,758
204,-11,756
188,7,752
175,22,748
157,35,741
142,49,736
118,53,728
91,53,721
72,43,711
59,30,689
48,17,669
49,0,646
50,-17,614
64,-36,586
73,-49,560
80,-47,525
84,-35,492
83,-19,460
82,-6,423
76,16,395
78,36,364
85,48,335
104,49,312
131,36,293
159,15,276
180,-8,270
194,-36,269
200,-59,272
194,-73,276
177,-75,283
161,-60,288
137,-33,292
115,-10,291
93,21,284
83,47,276
77,69,266
79,78,262
86,82,244
103,77,230
121,61,211
136,45,195
139,27,173
128,6,161
111,-11,144
87,-23,128
60,-32,112
30,-35,96
8,-35,81
-14,-26,66
-25,-16,50
-29,-4,34
-28,6,25
-19,25,9
-5,40,-4
4,52,-15
17,62,-15
26,68,-15
42,73,-13
62,79,-12
82,86,-11
108,94,-8
132,111,-3
165,128,-1
187,150,2
218,168,9
244,189,19
269,209,32
293,229,40
322,247,50
354,261,57
384,273,59
426,276,65
457,278,65
478,277,70
488,272,73
486,260,73
465,246,78
441,227,81
404,202,87
360,175,91
320,145,92
275,116,90
235,90,87
192,67,78
161,47,65
128,29,52
97,11,40
71,2,27
48,-12,16
19,-13,2
0,-12,-4
-18,-10,-17
-31,2,-24
-37,12,-33
-42,21,-40
-40,32,-45
-41,37,-48
-42,41,-54
-38,42,-49
-42,39,-54
-41,35,-51
-44,31,-53
-50,28,-51
-55,17,-47
-54,12,-49
-53,7,-48
-55,3,-45
-57,3,-42
-60,-1,-41
-61,-4,-40
-60,-9,-37
-61,-12,-38
-64,-17,-32
-65,-22,-31
-69,-22,-31
-70,-22,-29
-68,-20,-25
-63,-17,-22
-54,-13,-24
-46,-4,-26
-38,7,-27
-26,15,-26
-14,23,-26
-6,32,-25
0,38,-23
7,44,-24
10,47,-22
8,48,-23
7,53,-19
-2,57,-20
-11,56,-21
-26,61,-19
-38,63,-17
-52,67,-17
-65,70,-17
-72,74,-16
-84,80,-17
-88,83,-19
-84,92,-22
-84,98,-28
-74,109,-31
-68,112,-35
-57,120,-42
-48,122,-47
-41,123,-52
-36,118,-54
-33,109,-57
-30,101,-59
-30,90,-63
-33,75,-64
-36,66,-65
-40,54,-68
-45,48,-72
-48,42,-70
-45,38,-72
-46,38,-74
-41,40,-80
-32,44,-85
-25,46,-92
-13,52,-99
-4,56,-103
6,63,-107
20,70,-110
35,71,-112
45,79,-116
59,88,-119
71,95,-124
79,103,-125
86,110,-128
93,108,-129
93,115,-132
92,115,-134
94,116,-131
90,116,-130
94,112,-127
92,115,-126
88,120,-128
90,114,-129
92,116,-125
93,118,-122
95,120,-122
96,124,-120
100,131,-118
105,134,-114
108,135,-114
113,133,-115
117,129,-110
128,121,-106
128,120,-102
134,115,-97
139,115,-94
145,109,-91
145,108,-91
153,107,-88
152,104,-94
154,99,-94
154,91,-99
159,84,-103
154,76,-116
152,77,-128
147,78,-140
138,75,-151
123,81,-162
108,85,-159
86,93,-160
70,104,-155
56,118,-154
47,142,-148
43,162,-139
39,157,-128
32,165,-118
24,176,-103
18,191,-88
10,192,-76
9,211,-61
3,213,-48
2,218,-30
0,213,-17
0,196,-8
-3,200,-5
-12,193,-7
-13,192,-12
-12,181,-20
-11,181,-30
-14,180,-33
-14,180,-33
-19,174,-35
-24,175,-34
-27,173,-38
-36,163,-40
-41,146,-42
-46,134,-41
-54,105,-42
-63,74,-37
-72,45,-37
-80,14,-35
-87,-19,-29
-88,-47,-20
-86,-70,-13
-83,-86,-4
-71,-99,1
-66,-112,9
-53,-125,15
-37,-136,21
-22,-150,30
-9,-157,37
-1,-165,43
0,-168,47
-3,-180,58
-13,-180,63
-25,-179,74
-44,-169,84
-64,-162,101
-77,-153,110
-89,-151,123
-91,-143,132
-88,-130,139
-77,-132,153
-59,-128,157
-35,-111,173
-8,-92,183
17,-79,193
41,-49,199
67,-55,206
92,-39,211
110,-33,217
129,-40,217
137,-30,221
140,-47,221
144,-32,221
140,-50,217
133,-39,216
127,-54,213
120,-42,206
117,-51,199
113,-36,190
112,-44,184
111,-30,176
113,-31,164
113,-16,154
114,-10,142
118,1,136
118,10,127
119,21,115
118,27,111
112,40,101
110,51,95
99,63,90
95,76,89
85,85,86
74,97,86
65,107,90
59,116,88
52,122,92
45,127,93
38,131,92
31,131,93
26,129,91
24,126,85
24,126,78
24,124,73
25,120,61
32,118,55
39,117,37
43,116,27
47,110,16
53,111,2
61,106,-13
66,100,-24
71,97,-38
76,91,-56
83,86,-66
83,78,-74
85,74,-79
82,70,-83
76,68,-89
72,59,-89
64,58,-88
56,52,-86
45,47,-87
36,43,-82
27,37,-80
17,36,-76
10,31,-77
4,34,-78
-2,39,-78
-4,41,-81
-6,47,-85
-9,49,-86
-11,54,-92
-13,58,-102
-12,62,-111
-12,66,-123
-9,71,-130
-10,75,-138
-9,74,-142
-11,76,-150
-8,74,-158
-3,75,-162
1,71,-170
5,68,-172
12,63,-178
21,59,-179
32,56,-178
43,55,-177
59,52,-173
68,48,-173
80,46,-170
92,45,-165
102,39,-157
113,37,-152
120,34,-146
125,37,-136
132,36,-129
138,38,-122
143,39,-119
148,37,-113
150,41,-110
151,42,-102
149,48,-102
147,49,-93
141,53,-90
131,55,-85
120,54,-80
112,50,-70
109,50,-63
100,45,-59
96,44,-54
89,38,-49
89,36,-42
88,33,-37
89,29,-28
90,27,-23
85,23,-19
87,18,-12
85,12,-9
82,9,-3
80,3,1
76,0,6
68,-4,15
67,-2,22
61,-5,25
51,-3,30
46,-4,37
38,-6,40
30,-5,45
18,-7,45
13,-7,49
5,-4,49
-4,1,46
-10,4,45
-14,4,45
-22,6,47
-26,9,47
-31,8,44
-31,6,44
-31,6,48
-36,7,47
-31,5,46
-33,2,50
-31,0,49
-30,0,49
-28,0,48
-26,0,53
-26,-2,52
-23,-2,51
-24,-2,53
-22,-5,54
-17,-4,50
-17,-6,45
-17,-3,45
-19,-3,43
-15,-5,39
-16,-2,38
-15,1,32
-14,3,28
-8,3,30
-9,3,26
-5,3,25
-3,6,23
0,8,23
0,8,20
3,10,19
6,12,21
5,12,19
14,13,18
13,13,15
15,15,14
18,15,14
23,16,13
27,10,11
28,9,7
34,4,1
35,5,0
39,-1,-4
39,-1,-6
43,-6,-11
47,-10,-10
45,-9,-12
45,-11,-11
43,-7,-12
44,-4,-10
43,-5,-9
43,-3,-9
41,0,-7
39,1,-7
35,0,-7
35,0,-7
36,1,-10
32,0,-9
30,-2,-11
28,3,-9
27,1,-13
25,6,-11
24,5,-11
24,9,-14
21,7,-16
20,6,-10
14,9,-14
15,8,-11
14,6,-12
13,5,-8
11,5,-8
10,6,-7
8,6,-8
8,5,-9
10,1,-6
10,2,-9
9,0,-7
8,-1,-4
8,-1,-3
7,1,-2
7,1,-1
5,5,0
6,6,0
5,7,-2
5,7,1
5,9,0
3,6,3
2,7,3
1,9,2
3,4,2
3,5,4
0,5,0
3,4,3
5,1,8
8,-2,8
7,-4,10
10,-2,13
9,-3,8
12,-2,13
11,3,12
12,3,9
9,4,9
9,6,9
8,7,6
9,11,2
5,11,4
6,11,2
6,13,2
7,10,0
3,8,3
4,10,1
2,7,3
5,4,6
3,0,5
4,2,8
2,0,10
2,0,13
1,2,15
1,4,16
-1,6,14
-3,9,14
-5,12,15
-6,12,19
-6,15,19
-5,12,17
-3,11,19
-8,16,16
-4,13,16
-1,13,10
1,12,10
2,15,9
4,17,4
4,19,2
7,18,0
9,15,-4
9,15,-6
15,12,-4
16,5,-3
20,3,-4
23,1,-5
24,-1,-3
25,-4,-8
22,2,-2
15,-2,-2
13,-3,0
8,-2,-1
4,0,1
1,0,7
-5,4,4
-10,7,7
-11,13,4
-10,18,2
-4,24,-3
-1,28,-3
3,32,-5
8,32,-8
13,34,-7
13,29,-6
16,24,-9
21,18,-7
25,13,-8
22,6,-8
21,0,-9
22,-3,-4
18,-5,-4
15,-7,0
15,-9,2
11,-11,6
10,-9,5
10,-9,5
13,-7,5
11,-6,4
8,-6,4
5,-5,4
2,-2,7
1,-1,6
0,0,2
0,-2,5
-1,-2,4
-1,-4,2
-4,-1,2
-2,-1,0
-1,-1,0
-3,0,-2
-3,-2,0
0,-2,-1
0,-4,-1
4,-5,-3
7,-7,-4
6,-8,-5
10,-7,-3
11,-8,-4
9,-8,-4
10,-12,-5
7,-12,-2
6,-14,-3
5,-10,-4
2,-6,-8
5,-4,-6
2,-2,-4
1,1,-2
1,3,-2
1,2,0
5,4,0
5,7,0
4,3,5
5,8,3
5,5,6
5,1,9
7,-1,10
7,-1,12
8,0,9
11,-2,9
12,0,6
11,2,3
14,0,-2
13,5,-2
13,5,-4
14,4,-5
12,0,-7
14,0,-7
17,-1,-8
16,-3,-8
17,-8,-4
17,-7,-2
18,-7,-4
13,-7,-5
17,-8,-4
13,-8,-1
12,-7,-3
11,-9,0
7,-10,-2
5,-8,0
5,-5,-1
0,-6,-1
0,-3,0
-1,-1,0
-4,0,-3
-8,3,-1
-5,2,-2
-9,3,-5
-7,4,-6
-7,1,-2
-10,5,-4
-7,3,-6
-9,2,-7
-9,2,-5
-7,1,-3
-6,0,-4
-5,-2,-1
-4,-1,4
-4,-5,4
-2,-4,3
0,-6,5
-1,-7,2
2,-9,0
0,-7,0
0,-9,2
3,-5,2
3,0,1
3,1,1
1,4,-3
1,7,0
2,7,0
0,8,1
2,8,0
2,6,0
4,9,-2
3,6,0
4,6,-3
5,3,0
6,0,0
5,0,0
7,0,1
4,1,-2
4,0,0
3,-1,0
3,-2,1
4,-7,-1
3,-5,0
2,-3,0
-1,0,-1
-1,1,-1
-4,0,-1
-7,3,-2
-6,4,-2
-6,7,-4
-10,11,-5
-16,5,-4
-16,11,-2
-14,9,-1
-13,6,0
-11,10,1
-12,11,0
-11,13,2
-9,14,1
-5,14,3
-4,15,3
-3,13,0
-3,14,1
-1,16,3
1,15,1
5,16,-1
6,15,1
5,14,0
5,15,2
7,14,2
9,16,3
10,13,1
11,16,3
12,16,2
13,17,-1
9,17,1
6,19,-1
2,15,0
2,14,-1
1,13,-1
-3,13,2
-8,12,0
-9,9,0
-6,11,-4
0,9,-5
7,8,-6
16,7,-9
23,6,-7
27,4,-11
36,3,-11
36,1,-9
34,0,-10
31,-5,-10
26,-7,-9
21,-8,-6
15,-8,-7
10,-11,-4
5,-13,-2
-4,-12,-4
-8,-9,-1
-15,-4,-1
-14,-5,0
-19,0,3
-24,0,2
-24,2,0
-26,3,-3
-25,3,-5
-22,5,-4
-24,4,-7
-19,0,-6
-19,0,-5
-17,-2,-4
-15,-8,-9
-11,-9,-7
-10,-15,-5
-8,-16,-9
-7,-18,-7
-8,-19,-7
-8,-21,-3
-3,-20,-9
-4,-21,-7
-5,-19,-7
-3,-19,0
-4,-16,0
-10,-15,-3
-9,-13,1
-13,-12,3
-17,-7,0
-15,-6,7
-15,-6,5
-13,-4,6
-12,-8,5
-8,-4,6
-4,-3,7
2,0,3
9,-3,4
15,0,5
18,-1,7
22,1,5
23,2,8
23,0,11
25,2,10
23,0,15
19,-2,13
22,-1,15
18,2,10
15,1,12
13,1,11
11,4,10
14,4,10
10,8,6
13,8,5
12,11,8
10,11,6
13,10,6
14,9,8
17,4,5
19,4,3
18,3,5
18,-3,2
18,-5,2
17,-8,3
16,-7,-1
14,-10,-1
12,-14,-2
9,-11,-2
7,-10,-4
1,-5,-4
-3,-7,-10
-6,-2,-9
-10,-1,-8
-14,1,-9
-18,2,-7
-21,4,-8
-22,6,-9
-23,5,-5
-20,2,-6
-21,3,-6
-19,1,-3
-15,-1,-4
-15,-1,-3
-13,-2,0
-7,-1,0
-5,-1,0
-5,1,0
-5,2,0
-3,1,-1
-1,3,0
2,3,1
0,5,1
2,8,-1
0,9,0
3,10,0
1,6,1
4,11,-1
3,11,0
5,16,2
5,17,2
7,17,1
6,18,0
9,18,-3
8,17,0
8,22,0
4,22,-1
5,24,-3
6,23,0
2,24,-5
0,24,-1
-1,29,-6
2,27,-8
2,33,-9
0,35,-10
1,33,-11
2,30,-10
1,32,-13
1,31,-16
2,30,-17
2,29,-19
3,25,-21
3,26,-24
-1,27,-24
-5,25,-22
-10,25,-19
-18,24,-18
-23,20,-15
-36,17,-5
-42,16,-3
-50,16,-1
-50,15,1
-47,18,0
-39,17,-1
-31,19,-2
-17,20,0
-7,20,0
1,17,3
5,15,4
11,10,8
15,10,6
18,4,7
19,0,5
15,-2,6
12,-1,7
10,-4,10
6,-6,6
5,-3,9
4,-1,7
2,1,6
2,2,10
4,3,4
2,8,2
4,6,0
2,6,1
3,5,0
2,0,-4
5,1,-3
4,0,-4
5,-6,-2
4,-5,-3
4,-7,-3
2,-8,0
3,-7,0
6,-8,-1
2,-9,-5
6,-6,-6
5,-6,-6
9,-7,-5
6,-3,-3
5,0,-1
3,0,-3
2,0,0
-2,2,0
-5,-4,1
-7,1,2
-6,1,3
-4,-1,4
-4,-2,6
1,-2,6
5,-1,6
9,-1,7
12,0,8
15,0,3
15,0,7
17,2,6
18,4,7
17,2,9
18,6,10
14,3,7
15,1,10
13,5,6
14,4,8
13,4,10
11,3,9
9,5,8
9,5,10
11,4,10
9,4,10
6,3,8
7,1,9
7,-2,9
8,0,7
7,-2,4
6,-2,7
6,0,3
6,-3,2
4,-4,2
5,-3,0
5,-6,-2
4,-6,-4
4,-3,-1
2,-8,-7
-2,-6,-4
-1,-8,-2
-2,-4,-2
0,-8,0
-5,-5,0
-3,-2,0
-6,-5,0
-5,-4,-2
-8,-1,0
-8,3,2
-9,2,1
-7,2,3
-7,2,3
-10,5,5
-5,1,9
-7,5,4
-5,7,5
-4,6,7
-3,7,8
0,10,4
0,8,6
3,8,7
3,6,7
8,7,9
10,4,10
9,0,9
11,1,10
13,-2,10
13,-2,10
13,0,8
17,-5,9
17,-6,11
15,-7,9
13,0,13
14,-1,8
14,0,7
13,1,9
14,2,3
15,2,0
15,2,0
15,5,-1
12,3,-2
6,5,-2
-1,5,0
-9,6,0
-17,0,6
-21,3,6
-24,3,7
-21,-1,7
-18,1,3
-15,0,1
-6,2,3
1,3,2
6,6,-2
12,7,4
14,4,3
13,3,6
13,0,2
7,0,3
6,0,1
0,1,0
-5,1,0
-8,2,0
-12,5,0
-14,5,-1
-13,11,-1
-15,12,-3
-17,11,-3
-13,8,-3
-11,7,-3
-12,7,-2
-7,5,-2
-4,0,-5
-2,-3,0
0,-4,-3
0,-6,-3
3,-8,-2
3,-8,1
4,-11,0
2,-12,-1
2,-10,0
4,-11,2
0,-7,1
-1,-5,0
-1,-3,0
-1,1,-3
0,4,-2
-2,5,-2
0,9,-2
-6,11,0
-8,12,3
-9,10,4
-13,14,5
-14,13,7
-18,11,6
-15,12,9
-15,10,11
-15,8,12
-11,8,15
-9,7,12
-7,4,15
-7,1,16
-6,0,18
-5,0,17
-5,-3,17
-3,-4,20
-5,-3,19
1,-5,19
0,-2,20
1,2,19
6,5,22
6,2,20
9,6,16
13,8,13
17,9,15
16,7,14
17,7,12
18,9,9
18,7,3
18,6,3
17,1,1
16,2,0
17,3,-3
17,0,-2
17,-4,-2
15,-4,0
16,-4,0
15,-5,0
17,-7,1
14,-7,-1
15,-3,-1
13,1,0
13,0,1
9,-1,-3
10,3,-2
8,3,-3
6,5,-5
7,6,-6
5,8,-4
5,8,-8
3,7,-7
1,5,-6
-3,6,-6
-5,3,-4
-8,0,-2
-13,0,1
-16,-5,0
-17,-9,0
-17,-12,0
-16,-17,0
-18,-16,2
-19,-14,1
-17,-13,1
-19,-11,0
-21,-9,1
-25,-6,0
-24,-4,0
-27,-1,-2
-24,1,-2
-24,3,-5
-25,7,-7
-27,8,-8
-33,9,-7
-35,12,-8
-36,9,-3
-42,4,-2
-46,0,1
-46,-2,7
-44,-4,7
-39,-5,9
-32,-6,6
-17,-9,7
-3,-7,4
3,-7,5
14,-5,5
22,-4,1
24,-4,2
26,-4,5
26,-4,5
26,-3,6
19,-1,5
13,-1,7
9,0,8
6,-2,6
2,4,9
-1,8,7
-1,10,6
-3,11,4
-3,13,2
-4,10,3
-3,10,1
-3,10,1
-1,6,0
0,3,0
0,-1,0
1,-2,-2
2,-8,0
4,-10,0
4,-8,-4
4,-10,-1
8,-9,-4
7,-8,-4
6,-8,-1
4,-8,-3
2,-4,-4
0,-3,-6
0,-1,-4
-3,0,-2
-3,3,-1
-4,6,-4
-8,4,0
-15,5,2
-17,5,5
-18,1,8
-20,2,10
-20,0,13
-17,-1,12
-12,-1,17
-8,-5,15
-1,-3,13
2,-6,10
9,-8,14
13,-4,13
15,-6,13
15,-5,11
17,-5,13
19,-4,8
18,-5,9
19,-2,8
18,-3,5
17,-3,5
17,-1,3
20,0,6
20,1,3
18,3,1
13,1,-1
17,0,0
14,3,-2
17,0,-2
10,0,-2
8,-2,-1
7,0,-3
7,-4,-2
7,-4,-1
4,-5,-3
4,-4,-1
6,-3,-4
1,-2,-3
0,-1,-7
0,-1,-6
0,-5,-6
1,-4,-5
-1,-3,-8
-2,0,-8
-4,0,-6
-4,0,-6
-8,1,-10
-6,2,-7
-8,4,-10
-9,4,-7
-10,10,-7
-8,7,-1
-7,8,-4
-7,9,-2
-4,8,0
-3,6,-2
2,4,0
3,-1,-2
4,-4,-3
3,-3,-1
5,-3,1
9,-9,1
10,-5,1
12,-6,4
13,-5,7
14,-6,1
16,-5,1
17,-3,0
15,0,0
9,5,1
2,9,-2
1,10,1
-6,8,2
-12,6,0
-16,5,4
-15,6,1
-8,2,3
-4,1,-1
6,2,-4
13,-5,-5
21,-9,-3
27,-10,-1
29,-11,0
31,-14,1
30,-17,2
27,-17,4
25,-20,9
16,-17,7
10,-13,8
2,-12,7
0,-6,9
-2,-3,8
-3,-3,5
-6,0,4
-5,4,1
-3,5,-1
-2,1,1
-4,0,0
-3,0,0
-2,-1,-1
1,-1,-4
0,-7,0
0,-10,-2
0,-11,-3
0,-13,0
-3,-16,2
-1,-16,3
-2,-18,5
-6,-20,3
-4,-17,3
-6,-13,2
-7,-15,2
-8,-11,1
-10,-5,2
-7,-5,-1
-8,0,-2
-6,1,-1
-7,5,-3
-5,5,-3
-6,6,0
-7,6,0
-6,7,0
-5,5,-1
-5,4,-2
0,6,1
4,5,-1
4,2,2
7,4,-2
10,0,0
11,0,2
9,-4,1
6,-2,6
5,-4,4
3,-4,4
2,-5,3
0,-7,3
3,-5,2
2,-9,4
2,-4,2
4,-2,1
6,0,1
5,0,-2
2,5,-4
5,7,-3
4,6,-2
3,7,-7
3,5,-4
3,9,-4
1,4,-3
0,1,-1
-1,1,-3
0,0,-1
-2,-4,-2
-3,-6,-3
-1,-8,-2
-3,-6,0
1,-10,2
-1,-8,2
-3,-6,-1
4,-3,0
1,-2,0
-1,1,-1
0,4,0
0,6,-1
-1,5,-2
-4,6,-2
-5,2,-2
-4,4,-2
-1,3,0
-2,4,0
-2,2,2
-1,1,3
1,-2,4
0,-2,8
3,-7,9
5,-4,9
1,-4,8
5,-7,10
7,-9,6
8,-4,5
9,-5,6
9,-2,4
13,-2,4
12,-1,3
12,-2,5
12,-2,4
10,0,1
13,-1,3
11,-2,0
10,0,0
8,1,-5
5,0,-1
0,0,-1
-7,2,0
-13,2,8
-21,3,12
-26,1,9
-25,0,12
-22,2,11
-14,0,6
-3,7,3
11,8,2
21,4,-2
30,3,-1
33,1,-2
37,2,-5
37,-1,-1
40,-7,0
33,-9,-2
25,-10,3
14,-9,3
9,-13,5
3,-12,11
-3,-11,9
-11,-7,10
-13,-2,10
-16,0,10
-15,4,13
-17,7,10
-16,9,9
-15,10,7
-12,7,4
-11,8,4
-11,6,4
-9,7,5
-6,1,1
-6,-3,3
-1,-4,3
-1,-10,1
2,-10,2
3,-11,1
5,-11,3
7,-13,2
5,-12,2
8,-12,5
7,-9,5
9,-6,5
10,-3,8
11,1,9
8,5,5
8,8,6
9,8,7
7,8,6
5,9,6
4,7,5
4,11,5
7,8,3
13,5,5
12,5,1
18,5,-1
18,2,0
22,2,0
21,-3,1
23,-3,5
20,-2,4
15,-4,5
12,-5,7
9,-2,7
6,-2,5
4,-1,4
4,-2,2
2,0,3
3,-1,4
2,1,2
0,2,3
3,2,0
2,5,0
1,2,1
0,4,1
3,0,1
1,0,1
2,-4,0
0,-3,0
1,-2,1
1,-3,3
2,-2,0
2,-2,-1
5,0,2
9,-1,0
7,-1,-2
10,-2,0
10,-2,1
10,-8,0
11,-6,3
7,-6,2
8,-2,5
6,-2,1
4,0,3
-1,3,6
0,5,7
-3,5,3
-3,7,6
-7,7,3
-5,2,1
-4,5,6
-4,1,5
-4,3,5
-3,2,5
2,0,3
3,0,4
4,-1,2
7,-3,6
9,-1,3
12,-2,2
10,-2,2
8,-5,0
8,-3,0
11,-4,3
6,-5,2
9,-2,5
6,-4,3
4,1,2
2,0,3
0,3,2
-2,3,1
0,4,4
-2,5,3
-5,4,0
-4,2,2
-5,5,0
-4,3,3
-3,4,1
-3,4,0
-1,0,0
0,0,0
1,-2,2
2,-3,2
3,-2,2
6,-4,4
5,-1,2
6,-5,1
5,-5,3
7,-5,4
5,-1,5
6,-1,3
4,0,2
7,-1,4
5,1,4
4,3,0
3,3,-1
6,7,2
5,4,2
5,7,0
5,7,1
6,8,0
7,1,3
7,2,1
6,0,1
6,-2,1
9,-3,2
8,-6,0
7,-3,-1
10,-4,3
7,-4,0
8,-5,1
6,-4,0
8,-2,1
8,-2,0
6,2,0
4,1,-1
1,4,0
-4,2,1
-11,7,-1
-16,11,0
-20,10,6
-25,12,6
-25,12,9
-19,15,5
-13,16,6
-3,17,2
6,17,3
17,15,2
25,14,1
32,12,0
33,11,-2
36,3,-2
38,-1,-2
33,-2,0
31,-8,0
28,-8,3
24,-7,3
16,-7,4
12,-8,5
6,-6,7
1,-5,10
-1,-3,13
-3,-3,13
-7,-3,11
-10,-2,15
-13,-1,15
-16,1,12
-18,1,9
-17,0,9
-14,1,6
-11,0,6
-9,-2,2
-6,-1,1
0,0,0
5,-2,-2
8,-4,-2
11,-5,0
14,-2,0
14,-6,1
13,-3,-2
14,-4,-3
14,-2,-4
13,-3,0
12,-3,1
11,-5,2
2,-2,2
5,-3,3
0,0,4
0,-1,2
-1,-1,6
-1,-2,5
-3,0,3
0,3,2
5,7,1
6,9,0
11,5,-2
15,5,-3
16,4,-5
14,3,-2
11,3,-5
6,2,-2
4,2,-1
2,-5,0
-3,-2,0
-7,-2,3
-4,-3,0
-8,-1,4
-10,0,0
-5,0,-1
-7,1,0
-5,1,0
-2,1,0
-1,1,0
0,3,-2
3,4,-1
4,2,-4
9,3,-4
13,0,-4
13,0,-2
14,-2,-3
15,-5,-2
17,-7,-2
16,-8,-2
14,-9,-1
13,-10,0
8,-8,-1
6,-8,1
4,-6,0
0,-5,0
0,-5,2
-2,-3,3
-5,-1,1
-5,1,1
-6,1,4
-9,3,0
-7,6,-1
-7,5,0
-9,8,0
-10,7,-1
-11,6,-2
-7,11,0
-6,5,-4
0,2,1
-1,2,1
3,1,3
4,0,4
6,-4,4
7,-6,1
11,-4,3
11,-7,3
15,-7,1
12,-7,1
9,-4,1
12,-2,1
11,-7,0
9,-3,3
9,0,0
7,-2,1
10,1,0
6,2,-3
3,5,-2
0,1,-3
0,2,-2
-2,1,-1
-3,0,-1
-5,1,0
-6,-3,0
-10,-1,-2
-10,-1,-1
-12,-7,0
-11,-8,-1
-12,-5,2
-12,-11,-3
-14,-6,0
-15,-7,-2
-16,-1,-4
-16,-4,-4
-15,-2,-2
-15,-2,-4
-16,-1,-4
-16,2,-4
-13,2,-4
-14,2,-4
-11,2,-7
-9,5,-5
-10,1,-7
-8,2,-9
-7,3,-7
-5,5,-4
-6,2,-9
-4,3,-6
-2,0,-8
-3,0,-5
-1,-1,-3
-1,0,-1
1,-2,-2
0,-1,-5
2,-4,-3
0,-2,0
7,-7,-4
4,-7,-3
6,-8,-3
12,-9,-4
8,-8,-4
9,-9,-2
11,-8,-1
14,-8,-3
16,-6,-3
14,-6,-5
17,-3,-6
15,0,-6
11,4,-9
7,5,-13
4,6,-4
-2,10,-5
-7,10,2
-11,10,3
-17,11,1
-19,12,4
-13,10,3
-9,12,4
-4,11,3
1,8,3
9,9,1
16,5,0
20,2,1
26,-2,0
24,-3,-1
24,-7,1
23,-11,0
19,-11,-3
18,-11,-2
15,-11,0
10,-8,1
8,-9,1
5,-11,3
0,-7,3
4,-9,3
0,-5,8
0,-2,9
0,-2,6
-2,-1,6
-3,-2,7
-3,0,7
1,-2,8
-2,-3,4
-1,-3,7
-2,-2,3
-3,-2,1
1,-4,0
-1,-5,2
2,-6,1
0,-6,-1
3,-6,-2
8,-6,0
10,-11,-1
12,-9,0
8,-4,3
9,-6,1
12,-5,0
11,-4,0
9,-3,3
7,0,3
6,-3,5
5,0,6
1,-1,3
0,1,1
3,0,2
2,1,1
2,2,1
2,1,2
2,2,1
8,5,0
10,3,0
10,1,0
8,0,-3
10,-2,-1
10,-2,0
7,-5,2
8,-3,1
4,-1,0
3,0,-1
1,-1,1
2,0,2
4,-1,3
1,0,3
4,2,0
3,1,0
4,0,1
4,-1,4
2,0,-1
1,-1,-1
5,-1,-1
4,-2,-3
5,-2,-1
9,-4,-2
7,-4,0
7,-5,1
8,-4,1
8,-5,-1
8,-2,0
8,-4,1
7,0,2
6,-1,3
8,-2,4
8,0,3
7,0,2
4,-2,4
0,1,3
0,0,3
4,-1,7
-1,2,4
0,1,8
-1,0,6
-2,0,8
0,1,9
0,0,8
0,1,8
5,0,11
3,4,8
3,1,6
6,-1,7
7,0,6
7,0,6
8,-2,5
11,-5,7
12,-5,5
11,-8,7
9,-12,8
7,-14,8
10,-20,10
10,-24,9
12,-28,9
7,-30,9
9,-32,11
10,-35,7
9,-34,7
7,-36,8
9,-32,7
7,-30,5
7,-27,4
9,-26,5
8,-21,6
7,-18,4
5,-15,4
5,-11,4
8,-8,8
6,-7,5
6,-4,7
5,-2,3
3,-3,6
6,-4,4
2,-3,2
5,-2,4
6,-3,3
6,-4,4
5,-2,0
6,-4,2
8,-6,1
9,-6,-1
7,-6,-1
8,-3,2
10,-1,0
10,-1,1
8,1,3
8,0,5
8,1,5
7,1,5
3,3,3
6,3,4
1,1,6
2,2,5
2,1,6
2,2,3
2,0,2
5,0,3
5,1,3
6,1,3
4,0,2
9,0,0
9,0,1
9,2,1
9,2,2
10,5,2
9,5,-1
8,4,-1
6,5,-2
1,12,-2
-3,10,-2
-3,8,-1
-9,11,1
-13,8,4
-18,9,2
-17,10,8
-17,14,4
-13,13,4
-4,11,2
2,16,1
6,11,-3
13,12,-4
15,9,-4
19,5,-2
20,6,-1
22,0,-4
20,-2,-2
13,-2,-1
10,-4,-1
2,-4,-3
3,-4,-2
0,-3,5
-1,1,4
-5,0,8
-3,0,8
-3,0,6
-4,0,5
-1,2,4
-4,1,3
-3,1,2
-3,-1,-1
-2,1,-3
-2,-2,-2
-1,-6,-2
0,-7,-2
-1,-6,-2
-1,-4,-3
0,-5,-2
-1,-6,-2
-1,-4,-2
-2,-4,-3
-2,-1,-2
-3,0,-3
-2,2,-1
0,0,0
-1,-2,-2
2,-1,0
1,-1,-2
2,0,-1
0,-1,-1
-1,-3,0
-2,-5,0
0,-5,2
-3,0,-1
-4,0,0
-2,-1,0
0,0,0
0,0,0
2,3,-2
5,5,-1
8,6,-1
11,5,-2
14,2,-3
11,4,-2
11,3,-1
9,3,-1
4,0,0
7,-2,0
5,2,2
3,0,0
4,0,0
4,-3,4
5,0,2
5,0,2
6,0,1
6,1,0
10,0,1
9,-1,0
8,0,-2
10,0,-2
7,-1,-2
8,-1,0
11,-3,-1
9,-3,-3
7,-6,-2
6,-4,0
6,-5,-2
8,-1,0
5,-4,0
6,-5,1
7,-2,2
3,-1,3
5,-1,2
2,-1,1
3,2,-1
0,3,1
0,2,3
-2,1,2
-2,5,-1
-7,5,0
-6,4,-1
-5,4,2
-3,1,2
-2,1,2
0,1,2
-2,0,3
2,-2,3
0,-2,0
2,-2,2
0,0,2
3,0,1
2,-1,3
6,0,2
6,-1,1
7,0,1
5,1,2
6,1,0
7,1,1
5,1,4
6,4,0
7,1,0
6,0,2
6,3,-2
5,1,2
3,1,0
4,1,2
6,1,1
3,-1,3
4,0,1
3,1,2
2,0,2
2,2,4
0,1,1
1,0,3
-2,0,2
2,-2,3
-2,3,1
-2,3,0
-5,0,1
-3,3,0
-1,4,2
-3,5,-2
-1,3,-3
-1,4,-1
-1,2,0
0,3,-1
0,1,0
-1,1,0
1,2,-3
0,0,-2
1,-1,-2
-2,-3,-1
3,-4,-4
4,-5,-5
4,-7,-4
3,-5,-2
5,-6,-3
5,-4,-1
6,-5,-3
6,-3,0
5,-3,-1
6,-2,-2
3,0,-3
3,1,-3
0,1,-3
-4,4,-5
-7,5,-4
-10,6,-2
-14,5,2
-19,10,3
-23,9,5
-22,10,4
-16,13,4
-10,13,4
0,11,0
5,9,-1
16,6,-3
22,2,0
27,1,-1
30,-4,-1
30,-8,0
28,-11,-5
23,-12,-3
21,-12,0
15,-12,4
12,-10,4
4,-6,8
2,-4,11
-2,0,8
-3,4,5
-4,5,7
-3,6,7
-4,7,6
-1,8,1
0,4,1
1,4,1
1,1,0
2,-2,-3
3,-2,-8
4,-4,-7
1,-4,-5
3,-8,-4
4,-9,-5
1,-7,-5
0,-8,-2
0,-7,0
0,-7,0
-5,-5,0
-5,-3,2
-7,0,-2
-9,1,0
-8,1,-2
-11,1,-3
-9,3,-1
-6,2,-3
-12,3,-5
-8,4,-6
-9,4,-5
-8,0,-2
-4,1,-2
-4,1,-4
-2,2,0
0,3,0
4,2,0
4,2,-1
10,0,0
13,2,0
14,1,-1
16,1,0
16,1,0
18,-1,-1
12,-1,2
10,-3,0
6,-2,0
6,-2,0
5,0,0
3,-2,0
2,-1,3
1,0,2
3,0,0
2,1,0
2,1,3
4,0,0
1,0,-2
1,1,-2
3,0,-4
5,1,-2
4,-1,-4
5,-2,-2
5,-4,-2
8,-5,-1
7,-3,-3
2,-7,-3
2,-5,-1
5,-9,0
3,-6,0
5,-5,0
3,-2,2
2,-1,1
3,-1,0
1,3,-1
2,2,0
-1,3,1
1,4,1
1,3,1
-3,4,0
-2,3,1
-1,3,0
-1,0,-1
0,1,-2
2,1,0
2,0,0
3,1,1
3,0,0
6,-1,0
7,0,-1
6,-2,1
7,-2,0
7,-2,2
6,-3,5
3,-3,5
3,-3,5
4,-2,4
2,0,1
4,-1,3
1,0,2
5,-1,4
7,-1,2
1,2,1
3,-3,0
4,2,0
1,-1,0
5,0,1
5,1,0
6,0,-3
8,-2,-2
10,0,-3
7,0,-1
7,3,-2
8,0,0
8,0,1
6,0,0
7,3,0
4,2,0
4,2,-4
4,2,0
2,1,1
1,0,1
1,0,0
3,-2,1
3,-1,2
4,-3,2
-1,-3,0
3,-3,1
3,-4,0
1,-2,-3
5,-3,1
5,-2,-1
7,-2,0
10,-1,-2
12,-1,-2
14,1,0
16,1,-6
16,0,-7
14,1,-6
12,3,-5
5,2,-10
1,1,-3
-1,0,-3
-9,1,2
-11,2,5
-18,5,9
-18,3,9
-14,5,9
-7,6,6
2,8,7
12,8,3
23,10,1
28,5,0
34,6,-2
38,-2,0
41,-5,0
35,-9,2
34,-11,4
29,-11,2
22,-11,6
16,-12,4
11,-7,6
7,-8,7
1,-4,9
1,-3,6
0,0,8
-4,2,8
-3,5,6
-4,6,5
-5,10,3
-7,5,1
-4,5,0
-6,5,0
-4,4,-4
-3,2,-1
-5,1,-5
-2,-3,-3
-1,-5,-3
2,-6,0
0,-5,-4
1,-10,-2
0,-7,-2
1,-5,-4
1,-4,-3
1,-4,-4
-1,-4,-2
2,-2,-1
2,-2,-4
0,-2,-1
-1,0,3
-5,1,0
-7,2,1
-9,2,-2
-8,5,1
-11,7,5
-6,6,3
-4,5,4
1,6,7
2,7,3
8,6,2
14,2,2
19,6,4
25,3,4
23,1,2
24,0,4
30,-1,0
31,-1,-1
34,-1,-2
37,-1,-7
38,0,-6
41,4,-7
39,8,-12
41,9,-9
41,10,-5
39,13,-11
35,11,-7
34,8,-4
33,8,-1
31,5,0
30,2,0
28,1,2
28,0,3
23,-2,2
23,-1,7
23,-5,5
20,-3,7
15,-2,9
15,-1,8
13,-1,4
12,-1,7
10,0,6
10,0,4
7,-1,0
1,1,1
-1,1,1
-1,6,0
-5,6,-1
-7,5,-1
-7,4,1
-9,7,0
-9,8,0
-7,8,1
-10,6,0
-8,4,0
-6,5,4
-3,3,3
-2,4,0
0,4,2
3,2,4
1,2,5
4,0,5
8,1,4
8,0,4
7,-1,6
11,-4,8
9,-1,4
11,0,9
10,0,7
13,-2,7
14,1,6
16,2,8
11,5,7
16,5,7
20,7,8
19,6,7
20,7,6
24,5,7
25,9,6
30,6,7
30,7,7
34,5,5
33,1,6
34,2,3
37,0,5
38,-1,5
39,0,3
43,-1,3
42,1,6
45,1,4
42,2,0
45,4,1
48,3,4
43,8,-1
44,6,-1
36,10,-4
30,12,-2
23,11,0
12,12,2
2,10,7
-3,9,7
-10,11,14
-15,8,14
-12,11,12
-4,9,12
4,11,8
11,11,4
20,11,1
30,11,1
33,10,0
35,7,0
33,4,1
30,2,-2
28,-4,0
20,-4,2
13,-4,0
8,-4,4
4,0,5
-2,-1,3
-5,2,6
-5,2,7
-10,7,7
-13,7,5
-11,8,5
-11,6,3
-11,4,2
-9,5,5
-7,5,0
-8,1,0
-4,1,-1
-2,-2,-2
4,-6,-1
3,-9,-2
5,-9,-1
5,-11,-1
8,-15,0
9,-12,-1
11,-7,1
11,-9,0
8,-6,-1
11,-4,1
13,-1,-1
12,-1,0
12,1,-2
9,0,0
10,5,-1
0,6,0
1,8,2
-1,6,3
0,9,0
0,10,2
3,8,3
3,9,0
6,10,1
10,11,0
15,9,0
17,9,0
17,4,-3
20,7,-2
15,0,2
15,0,-1
11,-2,2
9,-2,2
7,-2,2
3,-2,4
2,-2,2
-1,3,1
-1,3,0
1,2,0
0,6,0
-4,9,-2
-4,7,0
-4,12,-6
-4,8,-4
-2,2,-3
0,3,-5
2,2,-8
2,-1,-9
4,0,-9
2,-3,-12
1,-4,-11
2,-2,-10
4,-6,-8
2,-7,-6
3,-7,-5
4,-5,-8
3,-5,-6
0,-1,-8
1,-3,-5
0,2,-3
-1,5,-5
0,6,-5
-2,5,-6
-1,8,-5
-2,6,-6
-4,7,-4
-5,7,-4
-5,4,-5
-7,2,-2
-10,5,-1
-10,5,-2
-8,2,1
-8,-1,3
-8,0,4
-5,-2,8
-5,0,2
-1,-1,6
-2,-2,7
2,-1,5
4,-2,9
5,0,7
7,-2,12
7,-2,8
12,0,9
8,-1,9
9,-2,7
8,0,9
12,-3,8
13,0,10
12,0,7
13,0,10
14,3,10
13,0,7
15,1,7
14,1,2
12,2,0
11,4,-1
8,4,-3
6,9,-5
-3,7,-2
-5,7,0
-13,5,0
-20,7,3
-21,3,6
-22,7,6
-18,7,5
-14,6,2
-4,7,0
7,6,0
14,7,-3
22,5,-5
25,1,-2
27,3,-4
26,0,-5
24,0,-5
19,-3,-4
14,-2,-5
10,-3,0
5,-4,-1
3,-2,1
3,2,0
8,3,1
15,7,2
20,11,0
27,12,1
31,16,2
38,16,0
44,18,-1
44,15,-3
46,13,-2
48,9,-2
46,3,-3
47,-4,0
51,-5,1
50,-9,0
55,-16,4
55,-15,9
58,-22,11
57,-22,15
59,-20,16
60,-23,15
57,-15,17
54,-12,14
51,-11,17
49,-6,14
46,0,10
44,1,10
39,3,8
33,5,9
25,6,11
15,6,10
15,5,9
10,5,11
7,5,14
5,2,15
4,0,14
4,0,14
7,-5,12
7,-4,11
9,-6,10
7,-8,11
5,-7,5
5,-5,9
1,-2,8
-3,1,4
-4,3,2
-5,6,0
-7,11,-1
-8,14,-2
-6,14,-1
-11,15,-4
-11,16,-6
-12,20,-8
-13,13,-9
-14,14,-11
-15,12,-13
-14,7,-8
-11,2,-13
-11,-4,-13
-9,-5,-14
-12,-12,-12
-8,-15,-10
-7,-14,-13
-1,-17,-6
-2,-20,-10
0,-20,-9
1,-20,-10
1,-19,-8
6,-15,-8
4,-13,-11
7,-10,-13
8,-11,-9
4,-9,-12
4,-9,-11
0,-5,-14
0,-5,-13
-1,-4,-13
-3,-2,-13
-4,0,-12
-4,1,-10
-3,0,-9
-2,2,-10
4,2,-5
6,1,-6
5,1,-5
9,1,0
12,0,0
14,-1,0
17,-3,0
20,-3,0
19,-6,1
22,-5,1
20,-10,2
26,-7,3
27,-7,4
26,-9,1
27,-9,6
25,-9,5
23,-3,5
25,-4,4
22,0,3
23,0,3
19,-1,0
17,3,0
19,4,-1
8,4,-1
2,7,0
-1,6,1
-9,6,4
-17,7,5
-20,4,8
-28,4,7
-27,6,8
-19,5,6
-11,7,0
-3,2,0
6,4,-5
13,3,-6
20,3,-6
18,-1,-7
19,0,-10
16,-4,-8
9,-9,-5
4,-10,-6
-1,-9,-5
-7,-9,-3
-11,-5,-3
-17,-5,-2
-18,-2,0
-18,-1,-1
-17,0,2
-17,0,1
-17,1,2
-14,-1,1
-15,-2,0
-12,-6,1
-9,-7,2
-6,-7,2
-2,-14,1
0,-16,0
1,-15,0
3,-16,-1
5,-16,0
8,-16,-2
8,-12,-2
9,-7,-2
9,-7,-1
9,-7,-1
7,-4,-3
11,-6,0
6,-1,1
9,-1,-1
12,1,0
11,-1,2
13,1,3
8,2,3
6,3,1
4,4,4
0,1,3
-2,3,3
-2,5,1
0,6,1
-3,6,1
3,4,1
5,3,0
7,4,2
11,4,-1
13,3,0
13,0,-1
9,0,1
6,-1,1
5,0,1
2,0,1
0,0,4
-1,-3,1
-1,-4,1
-2,0,-1
2,1,2
0,2,1
0,1,0
2,1,-2
1,7,-2
2,5,-2
3,5,0
0,4,-5
0,4,-4
2,2,-6
-1,3,-5
0,-1,-5
-1,0,-2
0,-4,-3
0,-2,-3
1,-2,-1
3,1,-3
3,0,-1
7,0,2
6,2,0
10,5,2
11,4,0
14,7,-2
13,7,4
18,5,0
18,6,1
22,7,2
19,7,2
22,7,4
21,8,1
22,3,5
23,5,5
20,4,7
19,4,7
19,3,8
20,3,8
18,0,9
17,2,8
17,0,7
14,2,8
15,5,8
11,2,10
10,2,6
10,1,7
9,1,7
9,2,6
10,0,4
7,2,4
10,-2,3
9,1,2
11,1,1
8,-2,4
9,-1,0
10,-1,3
9,0,0
9,2,-1
2,3,-6
0,5,-2
-1,6,-2
-8,8,-3
-13,5,0
-20,7,3
-22,4,4
-26,5,8
-24,8,7
-14,7,6
-4,5,4
4,6,1
18,4,0
26,0,-3
31,0,-2
34,-3,-3
35,-6,-5
32,-8,-3
30,-7,-3
24,-10,0
19,-11,2
14,-8,5
6,-8,6
2,-1,8
-3,3,8
-3,7,10
-7,8,9
-5,12,7
-10,13,4
-6,13,5
-7,13,2
-5,8,3
-2,6,0
-2,4,1
2,0,2
3,-1,2
3,-4,0
8,-6,0
11,-8,0
11,-10,0
10,-10,1
12,-11,-3
13,-9,0
8,-9,1
6,-5,1
5,-4,1
3,1,1
2,5,1
2,4,3
2,7,0
2,7,0
4,9,1
0,11,1
-1,10,0
-1,8,3
0,8,1
6,7,4
10,8,2
15,6,0
17,5,0
23,3,1
31,5,4
34,1,0
37,4,2
38,-1,1
39,-2,2
39,-2,5
36,-4,6
29,-3,6
33,-5,9
30,-2,9
28,-5,10
28,-1,8
31,-2,8
32,1,11
29,3,7
28,2,9
27,3,5
26,3,8
25,3,8
23,0,7
22,-1,4
20,-3,8
15,-6,4
14,-3,0
12,-4,4
10,-7,4
9,-6,7
9,-5,5
7,-4,3
6,-2,0
8,1,3
6,1,2
3,1,3
1,1,0
2,7,-4
0,4,-1
-2,2,0
-2,4,-1
-7,2,-1
-5,3,0
-8,0,-2
-8,-1,-1
-5,-2,0
-7,-1,0
-10,1,1
-4,-2,4
-5,1,-1
-4,0,0
-3,1,3
-1,2,3
-1,6,2
-1,6,1
1,3,1
0,7,-4
0,3,-2
2,1,0
2,-1,0
4,2,-1
3,0,2
2,0,0
7,-1,2
3,-1,3
5,0,2
5,-1,3
6,-1,3
5,-1,1
2,-2,5
5,-6,5
9,0,3
5,0,3
5,1,2
4,1,3
4,0,6
3,0,3
4,0,1
3,2,3
2,1,1
4,1,2
7,0,4
5,0,2
7,0,1
5,2,-1
6,0,0
5,0,2
4,-2,3
7,1,1
6,1,0
7,-1,0
11,-2,1
6,0,0
8,-1,1
9,3,-1
8,1,0
5,1,-1
4,1,0
6,0,0
4,-2,-1
2,-2,-3
0,-3,-1
2,-2,1
0,-2,0
1,0,1
0,0,0
2,-1,2
3,1,0
3,0,0
3,1,-3
7,1,-3
9,-1,-1
8,1,-7
5,4,-4
3,3,-8
-1,5,-5
-6,7,-8
-14,6,0
-19,3,4
-23,7,5
-26,7,10
-20,10,9
-11,9,7
-2,9,5
9,9,4
18,7,2
26,9,1
33,6,0
35,5,0
35,-3,2
31,-6,1
25,-4,0
20,-7,3
17,-7,-2
8,-6,4
3,-7,7
-3,-4,6
-2,-2,8
-8,2,8
-8,4,9
-7,4,10
-11,7,8
-12,7,7
-9,9,6
-5,8,4
-7,5,1
-8,7,0
-4,4,-1
-1,0,0
-2,-2,-3
0,-1,-3
0,-4,-2
4,-9,0
3,-7,-2
6,-8,-2
7,-6,-1
6,-6,0
5,-6,-3
8,-1,0
7,0,0
6,0,-1
5,0,-3
7,4,-2
6,4,-2
4,3,-1
0,3,0
1,5,0
-2,3,1
-3,7,2
-1,6,6
-4,3,8
-4,1,8
-2,4,4
5,2,4
9,3,4
12,2,0
14,0,0
15,1,-1
13,1,0
12,2,0
12,0,-1
9,-4,2
7,0,1
9,-2,3
5,-1,2
4,-2,4
5,-2,5
4,0,5
3,1,4
4,5,6
5,5,3
5,4,5
4,4,3
3,3,5
2,3,2
4,0,3
3,0,3
4,-1,-1
6,-4,-2
4,-2,-1
7,-3,-1
5,-4,-3
6,-6,0
6,-7,-2
9,-8,0
13,-8,1
8,-5,0
9,-3,-4
8,-7,2
4,-2,2
1,-1,0
2,0,1
-5,3,3
-8,3,1
-11,5,1
-14,7,4
-16,9,0
-15,7,1
-15,6,-1
-11,3,2
-12,4,0
-6,2,2
-6,5,1
0,2,2
3,1,0
4,0,1
4,0,6
7,-2,4
5,-6,6
8,-3,4
6,-2,3
5,-4,8
7,-4,5
8,-2,5
6,-2,2
13,1,3
11,1,3
12,4,2
10,1,5
13,0,2
11,1,3
11,1,1
11,0,2
11,-3,2
7,0,2
6,-1,4
3,-1,5
0,-2,3
0,-4,3
0,-2,1
-3,0,2
-2,0,5
0,2,2
-4,2,3
-3,1,1
-4,4,1
-1,7,0
-1,6,-1
-2,7,0
-1,3,-3
0,4,-3
-1,2,-1
0,0,-3
0,-1,-4
0,-4,-2
1,-5,-1
-5,-2,-1
-3,-2,1
-4,-2,0
-5,-4,3
-5,-2,3
-4,0,3
-4,0,2
-1,1,1
-2,1,0
-3,4,0
-3,2,4
0,0,3
-1,1,6
-3,1,3
2,0,5
0,-2,7
0,-1,5
3,-2,7
0,-4,9
5,-1,7
4,-2,8
10,-3,8
10,-2,5
14,-2,3
16,-1,3
16,-1,1
14,0,0
9,3,2
4,3,0
2,6,5
-1,10,5
-2,8,10
-7,10,11
-7,12,13
-7,12,12
-2,12,12
12,12,11
15,13,8
24,11,5
30,13,3
35,9,5
38,6,2
35,4,0
35,1,-2
31,-4,0
26,-3,-3
19,-5,-1
15,-7,0
7,-4,0
3,-4,2
0,-4,6
0,-5,6
-1,1,6
-2,-2,8
-1,-2,5
0,-1,10
-5,0,11
-2,-1,8
-4,0,9
-3,-1,8
-3,1,3
-4,-2,2
-2,-2,2
0,-1,2
-1,-5,3
1,-4,0
5,-5,0
5,-3,-2
8,-3,0
10,-8,0
11,-4,1
11,-2,-1
11,-2,-1
14,-3,-2
13,-2,0
15,-1,-1
12,0,-2
14,-2,2
10,-1,2
6,3,1
1,2,5
0,2,3
-3,1,5
-4,0,3
-5,0,6
-4,0,7
-1,1,6
0,3,6
3,2,3
6,3,1
9,4,-2
14,3,-3
17,2,0
15,1,-3
13,0,-4
14,0,0
13,-1,-1
10,0,-2
10,1,-2
8,1,-3
5,2,-2
7,2,0
7,3,0
5,2,0
6,0,-1
5,1,2
6,2,-3
3,0,0
5,0,1
2,-2,0
1,-3,-1
3,-5,0
3,-7,0
2,-7,0
4,-6,0
3,-7,0
4,-4,0
5,-4,-2
4,-7,-2
5,-7,0
3,-4,-1
2,-4,-1
3,-3,0
2,-1,-1
2,-3,3
2,1,0
-1,2,0
1,2,1
0,3,2
-2,5,0
-2,3,1
-2,3,2
-1,1,1
4,2,1
3,2,2
4,1,3
5,-1,5
8,-2,2
6,-3,3
9,-3,4
10,-3,5
10,-2,6
9,-2,3
10,-2,4
8,0,-1
9,-2,3
7,0,2
7,-2,1
5,-2,-1
2,-5,1
6,-4,-1
6,-5,0
4,-2,-1
2,-2,1
1,-2,-1
0,-4,-3
2,-1,-3
1,-1,-7
0,-1,-6
1,-1,-10
-2,-1,-11
-2,-3,-12
-2,-2,-12
-4,-4,-12
-7,-3,-16
-9,-3,-13
-8,-1,-17
-16,-4,-17
-17,-2,-18
-20,-3,-17
-25,-5,-15
-25,-6,-17
-31,-6,-16
-31,-7,-17
-32,-6,-15
-35,-5,-15
-32,-5,-14
-35,0,-14
-37,-3,-15
-36,-3,-11
-35,-3,-13
-29,-3,-10
-32,-5,-9
-33,-4,-12
-27,-5,-11
-25,-8,-8
-22,-5,-11
-21,-3,-7
-20,-3,-7
-16,-3,-12
-15,-4,-10
-11,-5,-7
-7,-7,-5
-2,-3,-6
-3,-2,-4
-3,-3,-8
-1,-4,-5
2,-6,-4
3,-4,-3
0,-5,-4
4,-4,-5
6,-10,-2
5,-4,-2
8,-9,-2
11,-8,-1
11,-9,-2
14,-6,0
13,-6,0
13,-7,0
13,0,-3
12,1,-3
9,2,-4
3,3,-2
-1,5,-7
-2,3,-2
-8,5,1
-12,5,5
-14,9,9
-17,6,8
-16,10,9
-14,8,8
-9,13,8
-3,10,4
1,8,5
12,6,4
15,8,3
19,6,2
21,4,-5
17,3,-4
20,-1,-2
17,-2,-2
12,-4,0
12,-9,1
10,-6,2
5,-6,2
7,-6,4
0,-5,7
2,-4,10
0,-5,4
-2,-4,10
0,0,8
-2,-1,11
-3,2,9
0,0,10
0,0,8
2,0,7
-1,-1,4
0,-1,6
0,-2,4
3,-4,2
0,-5,3
3,-3,1
5,-4,2
4,-3,3
5,-1,0
7,-2,-2
6,-2,-2
7,-2,0
6,0,0
7,2,0
8,0,1
9,-1,0
9,-2,-1
8,0,2
8,-1,1
2,-1,1
0,-2,2
2,-7,1
2,0,0
-1,1,-1
0,2,-1
1,4,-2
4,1,-2
8,4,-6
8,5,-7
11,8,-11
17,8,-7
21,9,-9
25,9,-9
29,10,-7
30,10,-9
33,13,-8
30,12,-9
29,14,-12
26,8,-7
22,8,-10
20,10,-8
18,8,-9
16,8,-7
18,3,-7
12,2,-4
13,2,-2
14,0,0
17,-6,0
17,-2,3
18,-7,2
16,-5,1
14,-6,-1
14,-5,0
13,-6,0
11,-7,-4
13,-5,1
10,-6,1
8,-2,-3
7,-2,0
5,-1,0
4,0,-3
-1,0,-1
-3,0,-3
-3,2,-1
-5,1,0
-9,0,-3
-12,6,-1
-12,1,0
-13,2,1
-16,1,1
-17,0,4
-16,3,2
-16,0,3
-13,0,3
-12,1,4
-12,-2,4
-13,0,2
-8,-3,4
-7,0,1
-8,-3,2
-6,0,4
-6,0,0
-1,3,0
-2,5,2
-5,1,2
-3,3,4
-1,3,7
-3,6,5
-3,2,7
0,4,6
1,1,7
3,1,8
1,1,6
5,0,9
2,0,5
7,-3,4
7,0,3
10,0,4
7,-1,5
7,-1,4
7,1,2
8,1,0
7,0,1
8,-4,2
9,-2,3
6,-2,4
6,0,0
1,4,3
4,2,0
3,0,0
3,0,3
2,1,1
-2,2,1
-1,0,1
-1,-1,3
-3,3,3
-4,3,3
-2,0,2
-4,3,2
-4,0,2
-3,3,0
-2,2,3
-1,5,1
-1,4,0
-2,2,0
0,2,-1
1,3,0
4,1,-3
1,-1,-1
5,-3,-1
4,-4,0
3,-6,-1
6,-4,-2
7,-4,0
5,-4,-1
9,-4,0
10,-3,-1
6,0,-3
6,0,-2
2,1,-5
-1,1,-2
-3,1,-5
-3,3,-6
-10,4,-4
-14,6,0
-17,6,1
-15,11,0
-13,12,2
-9,10,0
-3,9,-1
4,8,0
11,6,-1
17,3,-1
19,0,-5
19,-1,-4
24,-4,-3
22,-5,-5
19,-5,-5
14,-7,-5
11,-4,-5
5,-8,-1
2,-6,0
-3,-3,2
-1,-1,2
-5,-1,6
-4,3,3
-5,3,5
-5,6,5
-3,3,5
-2,2,2
-3,3,1
-1,0,0
-2,2,-3
2,0,-2
1,0,-3
3,-2,-3
1,-6,-3
4,-4,-2
5,-6,-2
3,-5,-2
3,-7,-1
3,-7,0
4,-6,1
3,-5,0
3,-2,1
2,-2,3
3,1,0
5,1,0
4,0,1
3,2,0
4,2,-1
4,1,-2
2,3,1
-1,3,-2
-5,5,-1
-6,8,-1
-7,13,-2
-9,18,-3
-10,19,0
-13,22,-5
-11,28,-5
-9,25,-5
-5,25,-7
-3,23,-6
-4,18,-7
-3,18,-4
0,12,-7
-6,8,-5
-5,4,-4
-4,1,-3
-5,-1,-2
-5,-3,0
-7,-1,-1
-10,-4,0
-8,-5,0
-6,-2,3
-3,-2,0
-1,1,2
-1,0,3
1,1,0
0,1,0
6,1,1
7,0,-1
8,-3,0
11,-3,1
10,-2,0
14,-7,-3
15,-8,-1
19,-12,1
21,-9,0
18,-11,1
18,-10,1
20,-12,5
20,-8,5
16,-8,3
15,-4,9
12,0,5
10,0,3
13,3,2
8,2,7
6,5,6
5,5,3
4,4,1
2,4,4
0,2,5
1,0,2
0,2,5
-1,0,3
-2,-2,1
0,-1,2
1,-4,3
0,-2,1
4,-4,0
4,-1,-1
3,-1,0
2,-1,0
3,0,0
1,-1,-3
1,0,0
-2,3,0
1,1,2
-2,3,-4
-3,3,-4
-2,0,-3
-2,0,-2
-1,-2,-2
-1,-1,-2
-3,0,-4
-4,0,-4
-3,-1,-2
-3,0,-3
-3,1,-1
-3,-1,-1
-4,-1,-2
-1,-4,0
0,-2,1
-1,-1,0
-2,1,0
0,-2,0
1,-2,0
2,-1,1
5,0,0
4,0,4
6,0,0
4,0,0
7,0,2
3,0,0
8,0,2
6,1,0
6,0,2
6,0,1
7,1,3
9,-2,3
10,-1,0
11,-1,3
11,-2,2
12,-2,1
13,0,3
13,-2,-1
14,-1,4
11,-2,2
13,-4,0
10,-1,0
2,-2,0
1,0,0
0,0,0
-7,-1,1
-9,-1,3
-11,0,6
-12,2,5
-13,3,9
-10,3,6
-6,2,6
-2,2,6
5,4,1
14,4,3
18,2,2
21,0,1
26,-2,-3
26,-4,0
26,-6,0
21,-9,-3
21,-9,-1
11,-7,-2
5,-5,2
0,-5,3
0,-3,4
-2,-2,7
-7,1,10
-6,2,8
-4,0,7
-3,3,4
-3,3,7
-2,2,2
-2,1,1
0,1,0
-1,0,-2
0,-2,-1
0,-1,-4
2,-1,-4
2,-2,-3
0,-3,-3
2,-3,-5
2,0,0
1,-4,-1
2,-5,0
3,-5,0
4,-5,2
1,-4,0
0,-3,0
0,-3,-1
3,1,-2
6,-2,0
1,0,0
0,-1,0
1,1,0
-2,2,2
-2,4,1
-3,1,0
-6,2,0
-5,3,0
-6,4,5
-3,6,0
-2,4,2
0,7,2
2,4,0
7,5,1
9,2,2
12,3,0
15,0,-2
14,0,1
14,0,-3
13,1,2
11,-5,-1
7,-3,0
6,0,2
4,0,0
3,1,0
1,0,1
1,3,4
-1,2,2
4,4,3
2,2,2
5,1,0
8,0,2
8,-2,0
6,-3,0
7,-5,-1
7,-6,-2
5,-6,-1
9,-2,0
7,-6,-1
8,-4,-3
7,-4,-2
6,0,-3
5,0,-2
4,0,-7
6,-1,-4
2,-1,-3
4,1,-2
1,-2,-1
1,0,-2
0,0,-1
-2,0,-2
-2,0,0
-2,1,-1
-3,-2,2
-4,0,-2
-7,0,0
-8,3,3
-5,-1,0
-5,1,3
-1,3,2
4,1,9
10,2,9
12,2,7
18,6,8
23,4,1
29,5,1
37,2,0
39,6,-4
41,5,-7
41,7,-7
41,4,-9
35,5,-12
31,3,-9
24,2,-10
17,3,-9
15,0,-10
8,1,-5
2,2,-6
-3,3,-3
-10,2,-3
-16,4,-2
-17,5,0
-20,3,0
-25,5,2
-24,4,-2
-26,6,0
-26,6,-4
-27,7,-6
-29,6,-7
-29,5,-11
-28,3,-9
-31,3,-13
-32,3,-10
-36,0,-13
-37,2,-14
-39,-2,-11
-37,-1,-13
-39,-5,-13
-37,-4,-9
-40,-3,-11
-39,-4,-11
-39,-3,-6
-36,-1,-4
-34,-1,-5
-34,-1,-7
-28,-1,-6
-26,2,-7
-24,3,-8
-25,6,-8
-23,7,-6
-22,6,-8
-23,9,-5
-21,10,-3
-18,7,0
-19,9,1
-14,9,5
-10,8,6
-1,6,8
6,6,11
15,8,5
23,4,8
33,0,5
34,0,2
40,-4,1
41,-6,0
39,-6,0
36,-11,1
31,-12,2
27,-10,3
22,-9,1
16,-8,4
11,-6,5
6,-2,8
-1,0,7
-1,2,8
-2,4,6
-6,7,8
-7,6,6
-8,8,4
-10,6,3
-8,6,2
-8,0,2
-10,0,2
-9,0,0
-12,-4,-3
-10,-5,-2
-6,-7,-2
-5,-9,-2
-5,-7,-2
-5,-6,-2
-2,-5,-1
-1,-3,-3
0,-4,-1
1,-1,0
1,2,0
1,2,0
2,4,0
3,5,0
8,5,0
8,5,2
11,5,4
7,4,1
11,5,6
10,2,4
11,2,4
9,4,3
12,2,8
10,2,7
15,1,7
17,0,4
17,0,5
22,0,5
22,2,2
21,1,4
25,0,6
18,3,3
16,4,8
14,2,6
13,4,8
6,3,4
3,6,8
3,3,6
5,3,7
3,2,5
2,1,3
2,2,5
2,2,2
4,3,2
2,1,2
3,0,2
6,0,0
9,0,1
8,0,1
6,-1,1
6,-1,-4
6,-4,-1
8,-4,2
4,-3,0
5,-4,0
5,-4,0
0,-3,1
5,-5,1
2,-2,-2
5,3,0
5,1,0
4,2,1
4,2,0
5,2,-1
3,5,-3
0,5,0
2,7,0
4,2,-1
4,5,0
3,2,1
2,0,1
3,0,6
5,0,3
5,-1,6
6,-1,6
4,1,6
3,1,7
6,1,3
6,3,5
5,4,4
8,4,1
8,5,5
7,5,4
7,3,5
10,5,4
8,4,2
6,3,3
10,-1,3
10,3,3
9,1,1
9,1,1
8,-1,0
11,0,1
9,0,1
8,-1,3
6,-1,4
6,1,3
3,1,2
5,-2,2
4,0,2
1,1,3
2,-2,1
4,-2,5
1,-3,2
2,-1,3
4,0,1
6,1,3
6,1,0
8,2,0
9,3,-4
11,4,-5
9,5,-2
3,6,-3
0,8,-4
-7,6,-3
-12,7,-2
-18,5,2
-22,7,3
-27,7,5
-25,5,10
-22,9,9
-15,11,4
-7,12,6
4,8,7
14,8,3
22,5,2
28,2,0
32,1,0
33,-3,0
32,-9,0
28,-7,0
21,-8,1
16,-9,4
9,-8,2
2,-5,3
0,-4,7
-3,2,6
-4,2,11
-7,8,6
-8,6,7
-6,9,8
-1,8,3
0,9,4
0,3,-1
0,7,0
0,0,0
3,0,-2
4,-4,-2
5,-10,-2
6,-5,-2
4,-9,-3
4,-8,0
6,-12,-2
5,-12,0
6,-7,0
4,-7,0
5,-4,-2
5,-3,0
6,1,-3
7,0,-3
8,1,-2
6,2,-4
6,1,-3
6,2,-2
3,2,-1
1,5,1
1,3,0
1,2,4
0,3,4
1,5,4
3,5,4
8,3,8
10,3,4
15,4,4
19,3,2
18,2,2
22,2,3
22,0,2
21,1,2
18,-2,0
15,0,4
14,-2,4
11,-3,5
7,0,6
7,0,8
8,-1,8
4,3,4
3,2,5
6,5,2
3,6,6
3,5,5
3,4,6
5,3,2
7,0,2
9,1,2
8,-1,2
7,-1,0
10,0,0
7,-4,3
7,-1,1
9,-3,1
8,-4,-1
9,-4,0
7,-3,-2
2,-3,-1
4,-2,0
4,-1,0
0,-3,0
0,-3,0
0,3,-2
-1,0,1
-5,4,1
-5,5,1
-6,3,2
-10,6,1
-7,5,0
-9,3,0
-8,5,4
-4,5,4
-5,5,2
-1,5,1
0,1,4
-1,2,2
1,0,2
4,-2,7
7,-2,4
5,-5,3
6,-3,3
4,-3,5
6,-4,4
7,-2,4
4,-2,1
1,0,5
4,0,4
1,-1,5
-1,-1,1
0,0,7
0,0,5
1,-2,3
2,0,6
3,-2,3
5,1,4
6,0,6
9,-1,7
12,0,2
12,-1,0
13,-1,0
9,1,-6
9,-1,-5
5,5,-5
-2,4,-5
-4,6,-6
-10,5,-1
-16,6,2
-19,6,4
-22,9,4
-19,11,8
-15,11,7
-10,11,8
4,7,5
13,4,1
19,1,1
26,2,0
29,-1,1
27,-2,3
27,-4,-1
21,-7,-2
18,-8,0
12,-6,0
11,-6,1
4,-2,2
0,0,4
-2,2,6
-3,5,8
-3,6,9
-5,6,6
-1,6,5
0,9,3
1,6,4
4,3,0
7,3,-1
6,0,-1
8,0,-4
9,-3,-6
11,-4,-9
12,-5,-4
7,-8,-4
9,-3,-5
7,-6,-3
7,-3,-4
5,-7,1
0,-4,0
0,-4,0
-6,-4,0
-9,-1,1
-12,0,3
-11,1,5
-14,3,1
-14,1,6
-16,3,5
-13,5,7
-17,6,5
-15,8,6
-11,8,3
-9,7,6
-5,7,5
-1,7,7
4,6,5
11,5,4
13,3,0
21,4,2
24,2,0
26,0,0
27,1,1
25,0,5
24,-2,7
22,-2,2
20,-4,5
18,-4,5
12,0,2
12,-3,7
9,1,2
10,1,5
12,2,1
9,2,2
10,4,3
13,3,1
12,5,-5
13,0,-3
15,-1,-5
16,-3,-5
11,-1,-8
13,-7,-5
10,-8,-9
12,-8,-6
7,-8,-6
6,-8,-8
2,-7,-7
2,-8,-4
2,-5,-8
1,-5,-3
-1,-2,-5
-4,0,0
-4,2,-2
-3,4,-4
-6,4,-3
-7,5,-2
-6,4,-3
-7,4,-2
-9,0,2
-8,5,0
-6,4,3
-5,3,5
-1,2,2
0,2,4
0,3,4
4,3,6
4,3,4
5,3,7
8,4,7
8,4,6
7,1,6
11,3,6
8,3,6
8,3,5
11,3,6
9,3,4
9,3,7
10,4,6
13,4,4
13,1,7
15,1,4
13,0,8
12,-1,2
13,-1,4
15,1,-1
18,0,-1
15,1,0
14,4,-7
8,3,-5
4,7,-4
-3,6,-7
-8,10,-1
-15,8,0
-20,8,0
-23,10,0
-26,10,1
-20,11,1
-12,12,-2
-1,10,-2
5,10,-4
16,7,-5
23,2,-6
28,1,-4
30,-5,-8
29,-5,-8
26,-6,-10
23,-12,-5
17,-10,-1
13,-10,-3
3,-6,-1
-1,-1,4
-6,0,3
-11,3,5
-11,9,4
-15,13,2
-15,13,3
-12,13,3
-10,13,1
-11,8,-2
-6,9,-2
-5,3,-3
-3,-2,-3
1,-3,-3
2,-5,-2
6,-8,-4
7,-9,-5
9,-9,-4
9,-12,0
9,-10,2
7,-4,0
11,-8,1
7,-6,1
7,1,2
6,-1,0
4,1,0
4,1,-1
3,3,-1
3,4,-2
2,4,-1
0,6,-1
1,6,2
-1,4,1
-3,4,2
-3,3,1
-4,2,4
-5,4,4
-6,3,8
-1,3,7
2,4,3
4,1,1
7,4,0
8,4,5
12,3,0
11,5,0
13,3,1
9,6,1
8,8,0
9,6,3
7,9,0
2,6,1
5,5,2
3,2,1
3,2,0
4,-1,-1
4,-4,0
7,-3,0
5,-6,-1
7,-6,-3
5,-8,-2
4,-7,-5
-1,-7,-6
3,-4,-3
0,-2,-7
-3,-1,-5
-8,0,-4
-4,1,-4
-4,1,-8
-6,2,-5
-7,2,-7
-5,1,-8
-5,0,-3
-7,0,-6
-4,3,-5
-3,2,-6
-5,0,-5
0,1,-4
0,1,-4
-2,1,-5
0,3,-5
0,4,-1
-2,6,-1
0,5,0
0,8,-2
3,6,-3
3,7,-2
3,6,1
4,6,-1
4,4,0
6,7,1
7,3,-1
8,2,0
7,0,-3
5,0,0
2,-2,-2
0,-2,0
0,-2,-6
-3,-3,-3
-6,0,-2
-6,-2,-4
-9,-1,-4
-12,1,-2
-12,4,-2
-11,5,1
-9,8,0
-9,9,-2
-4,9,-3
-4,9,-4
-6,12,-7
-7,12,-2
-11,13,-4
-13,11,-4
-16,9,0
-20,8,1
-24,5,1
-22,4,5
-20,3,5
-14,5,3
-6,0,4
4,0,-1
11,4,-1
20,-1,-3
28,-6,-4
29,-5,-1
29,-7,-3
27,-7,-2
26,-9,3
19,-11,2
16,-9,3
10,-8,3
7,-4,4
5,-1,6
3,-1,6
0,5,4
-1,4,3
3,7,6
0,9,2
-1,10,2
1,7,-2
3,7,-2
4,7,-4
2,2,-3
5,0,-3
2,-3,-4
5,-3,-3
5,-5,-1
6,-7,-1
5,-8,-2
3,-7,0
2,-6,-2
5,-6,-2
3,-7,0
2,-2,1
0,-2,3
-1,-1,-1
-2,2,1
0,0,-1
1,2,0
1,1,0
-1,2,0
1,1,0
1,1,2
3,0,3
1,0,2
1,0,2
3,5,2
4,0,2
5,2,2
6,3,4
10,0,3
14,1,-1
18,1,1
22,1,2
21,-3,2
18,-1,2
18,-5,1
12,-6,1
8,-3,3
7,-3,4
5,-4,5
2,-1,1
4,0,4
4,0,2
-1,2,0
3,5,2
3,5,-1
3,7,-3
5,5,-3
6,4,-3
7,1,-1
2,1,-3
4,3,-4
1,-2,-3
-1,-3,-6
0,-2,-3
-5,-1,-2
-3,-3,-1
-5,-3,-3
-7,-3,-1
-6,-2,0
-2,-2,0
-4,-2,0
-1,-3,-1
0,0,0
0,-2,0
0,-2,2
3,0,0
2,0,0
0,0,-3
0,0,-2
-2,2,-5
-1,-1,-2
-1,2,2
0,4,1
-3,7,0
0,4,0
0,6,1
-1,5,0
5,5,1
5,3,1
7,3,1
7,0,1
6,2,2
6,-1,4
5,3,-1
9,0,0
7,-3,2
9,0,1
10,-1,1
8,0,-2
9,-1,1
7,-1,2
10,0,2
9,1,2
6,-3,3
5,0,0
7,1,0
7,0,-2
9,-1,0
11,-1,0
10,-2,-1
8,-1,-2
7,-2,0
7,-3,2
6,-4,-3
10,-2,2
9,0,-4
8,0,-2
8,-1,-6
1,1,-2
-2,2,-1
-6,5,-2
-11,5,3
-18,9,4
-20,6,6
-22,7,9
-19,10,9
-16,9,11
-8,9,7
3,9,6
14,9,0
22,8,0
30,4,0
33,4,0
36,0,-5
33,-3,-3
31,-7,0
25,-8,-2
20,-11,4
14,-8,6
9,-5,9
0,-2,10
-2,0,11
-6,2,12
-8,8,13
-11,12,11
-8,12,6
-8,11,7
-4,9,6
-3,7,8
-2,8,0
1,2,2
0,0,1
3,-2,-1
3,-6,0
6,-6,0
7,-11,-2
6,-13,0
9,-13,2
7,-10,0
6,-9,-2
7,-8,4
6,-2,3
5,-4,5
1,0,4
0,5,1
0,1,5
0,3,3
-2,2,1
0,5,0
1,7,1
0,6,-2
0,3,0
-1,6,1
-1,4,0
0,3,0
0,3,2
0,0,5
0,4,3
4,3,1
8,2,3
12,0,-2
16,2,0
18,0,-1
16,-2,2
12,-2,0
11,-3,0
10,-2,-3
7,-3,-3
5,-4,0
5,0,1
4,-2,-1
2,1,0
0,2,0
-1,7,0
-1,8,0
0,7,0
-1,12,-2
0,10,-4
2,9,-2
1,11,-6
8,9,-5
8,6,-4
7,5,-5
12,4,-4
9,4,-3
13,2,-4
16,0,-6
14,3,-4
14,4,-3
14,7,-7
15,6,-6
15,6,-4
11,7,-3
10,8,-1
4,6,-4
4,5,-1
-2,5,0
-2,3,0
-4,6,0
-5,4,3
-9,1,4
-10,1,4
-9,-1,5
-10,0,4
-11,0,6
-6,0,4
-5,0,7
-6,0,5
-1,2,5
1,1,8
1,4,6
5,5,9
9,1,4
11,2,5
13,3,6
14,3,6
12,2,4
16,0,6
17,-2,5
13,-2,6
15,-2,5
12,-1,8
13,-5,6
15,-3,6
15,-2,5
10,-1,5
8,1,4
9,1,5
9,0,3
7,1,3
6,2,3
7,3,0
8,2,0
9,0,0
10,-2,1
7,-1,-3
8,-1,-1
10,-4,-1
8,-2,-7
8,-2,-6
8,-3,-5
9,0,-6
8,0,-8
6,3,-7
8,2,-6
4,4,-4
2,4,-3
0,4,-7
0,3,-1
-1,1,-4
-3,3,-7
-3,1,-2
-4,1,0
-3,2,0
-6,1,-1
-4,0,0
-5,1,-1
-2,2,0
0,3,2
0,4,2
5,3,3
3,6,4
3,7,7
7,6,6
9,10,7
10,7,6
13,6,5
12,4,6
16,5,6
15,3,8
15,3,7
19,1,6
11,1,3
15,-2,5
14,0,5
16,-3,6
14,-2,3
15,-2,4
13,-1,6
12,-2,2
13,-1,8
12,-3,3
14,-2,1
10,3,0
7,2,1
3,4,0
-1,5,0
-2,8,-1
-7,12,1
-15,10,1
-17,13,6
-22,13,6
-24,16,8
-16,16,7
-11,17,8
0,16,5
8,18,1
20,15,0
27,10,0
33,7,0
35,2,-2
35,0,-2
36,-4,-2
33,-7,-3
28,-9,-3
25,-8,-3
22,-7,-5
13,-5,-1
9,-2,-2
4,0,3
0,0,7
-3,2,5
-4,2,4
-9,2,7
-10,3,9
-12,3,8
-13,2,9
-15,1,8
-15,0,5
-15,1,4
-12,0,1
-10,-2,2
-8,-2,0
-3,0,0
-2,-1,-3
0,-2,-1
5,-1,-6
9,1,-4
9,-1,-4
16,-3,-3
15,-1,-1
16,0,1
16,-5,0
16,-4,-3
15,-5,1
14,-2,-1
9,-6,0
8,-3,4
6,-2,1
3,0,3
0,1,3
1,3,8
-1,2,6
-2,7,4
-1,9,4
-2,6,3
-1,11,0
6,10,0
7,8,-3
10,11,-4
13,7,-1
11,5,-3
8,7,-7
9,2,-1
7,0,-4
7,-3,-1
4,-6,3
0,-6,2
0,-1,0
-2,-4,3
-3,-2,5
-5,-1,4
-6,0,5
-6,1,5
-5,2,3
-5,4,3
-5,4,0
-3,7,-2
0,7,0
2,5,0
5,6,-3
9,4,-1
9,3,-3
10,3,-4
11,-1,-1
11,-4,-1
14,-4,-3
14,-5,2
15,-7,3
13,-6,2
12,-6,3
9,-7,3
10,-6,5
6,-4,4
3,-1,4
0,-1,0
3,0,0
0,3,0
0,0,2
0,5,2
0,2,1
-1,4,3
1,3,3
2,3,3
2,2,5
7,2,3
11,0,7
14,2,6
17,0,5
21,0,5
22,-1,4
27,-3,4
27,-4,5
28,-5,4
29,-4,4
33,-6,8
31,-5,6
31,0,6
33,-1,8
30,-3,5
28,0,6
25,1,3
23,0,6
17,4,5
12,5,1
9,3,3
4,5,1
-1,8,0
-6,7,2
-13,8,-1
-17,5,0
-21,7,0
-27,4,0
-31,2,0
-33,1,-4
-35,1,-2
-35,-1,-2
-37,-1,-5
-36,0,-2
-35,0,0
-33,0,-7
-30,0,-7
-29,-2,-5
-25,0,-4
-26,-1,-4
-23,0,-5
-21,-3,-4
-18,0,-4
-15,-1,-2
-13,0,-3
-12,0,-3
-10,1,-2
-9,0,0
-5,1,-2
-4,0,0
-2,4,0
2,4,0
4,3,0
5,4,0
8,5,0
11,3,1
11,3,0
15,1,-1
15,-1,2
13,-1,0
14,-1,-1
14,-5,1
11,-5,-1
7,-7,-1
5,-7,0
2,-6,-3
0,-8,0
-5,-6,-5
-7,-3,-8
-14,-3,-10
-14,-2,-11
-21,1,-15
-22,0,-16
-24,-1,-18
-26,-2,-17
-30,0,-18
-36,0,-20
-39,5,-24
-42,8,-23
-47,8,-19
-53,6,-20
-57,4,-20
-64,7,-18
-70,7,-15
-73,8,-11
-78,7,-9
-76,5,-10
-75,9,-8
-69,10,-9
-61,11,-9
-50,9,-11
-44,12,-11
-32,6,-16
-25,6,-17
-16,5,-16
-13,0,-17
-7,-1,-18
-5,-2,-16
-7,-3,-16
-4,-4,-15
-5,-8,-9
-3,-7,-9
-3,-9,-6
-4,-7,-4
-6,-7,1
-4,-4,2
-5,-6,6
-6,-6,4
-3,-2,6
0,-3,7
-2,-5,5
0,-1,3
0,1,3
-2,0,2
-2,-1,1
0,0,2
0,-1,1
0,-2,0
2,-3,1
1,-1,0
1,0,-2
5,-1,0
7,-3,0
7,-2,0
5,-2,0
5,-1,-1
7,0,-2
8,-1,0
5,0,-1
6,-1,0
6,0,3
7,2,-1
3,1,2
3,2,1
0,3,4
2,4,2
0,3,5
1,5,4
0,5,6
1,12,1
2,11,2
3,14,4
6,12,2
9,14,5
9,16,5
12,15,4
14,14,6
17,13,8
15,10,9
18,9,9
22,9,9
16,6,11
19,6,10
21,5,10
20,2,9
21,4,9
23,2,13
22,5,13
23,4,14
24,7,15
21,5,15
19,8,14
17,4,11
19,6,10
18,5,9
17,3,10
14,4,9
13,1,7
16,-1,6
14,-1,7
13,-1,4
12,-2,5
14,-8,5
15,-10,4
14,-11,5
14,-12,7
14,-13,4
13,-15,4
10,-12,1
8,-11,4
6,-10,4
1,-10,3
0,-8,3
-3,-6,3
-5,-4,6
-4,-3,6
-5,-3,6
-7,-3,9
-8,0,8
-8,-5,9
-5,0,7
-3,0,7
-1,0,9
0,-2,6
6,0,8
5,-3,7
10,-4,7
14,-3,9
16,-4,10
17,-4,11
21,-8,8
23,-6,9
27,-5,11
31,-6,10
29,-4,11
29,-3,11
29,-3,11
28,0,9
29,0,9
26,4,9
23,4,10
23,3,7
19,5,4
19,9,5
17,5,5
13,6,5
12,6,4
9,7,3
8,7,3
5,8,3
5,6,5
3,6,3
2,6,4
1,6,1
0,3,4
1,3,3
-1,3,2
0,5,3
-3,1,0
-5,5,-1
-6,3,1
-6,2,0
-11,6,3
-14,5,1
-16,8,0
-17,8,1
-17,6,0
-16,7,0
-16,6,3
-15,4,0
-12,5,3
-9,2,5
-7,1,4
-3,0,4
-1,-3,4
-1,-2,2
5,-4,2
8,-4,0
11,-5,0
10,-3,0
12,-3,0
13,-4,0
11,-2,-1
13,-1,1
13,2,3
11,2,3
11,3,-1
8,4,2
7,8,1
5,10,0
2,12,0
-2,15,-3
-5,13,-1
-9,12,2
-13,11,1
-15,12,1
-21,11,3
-21,11,2
-20,10,0
-13,11,4
-9,12,0
-5,12,0
4,9,0
6,8,0
14,6,-3
19,4,-1
21,1,-5
21,-2,-3
20,-2,-2
17,-4,-2
14,-3,-2
11,-4,-2
7,-3,0
4,-2,0
3,-2,5
1,-3,4
-3,-2,5
-3,-1,6
-4,0,5
-2,-1,5
-5,0,-1
-1,0,2
-3,1,1
0,2,-3
0,-1,0
-2,-4,-2
2,-3,0
1,-3,0
1,-2,0
0,-5,1
2,-7,1
0,-5,0
1,-5,-4
4,-4,-1
5,-5,-3
5,-6,-2
5,-4,-1
7,-3,-2
6,-7,-3
3,-3,-1
6,-4,-2
8,-4,-3
5,-3,0
2,-3,-3
2,-2,0
1,-1,-2
-1,-1,0
-1,-2,-2
-2,-3,-2
-3,-1,-4
-5,0,-1
-4,0,0
0,0,0
0,3,0
3,2,-3
7,0,-3
9,1,-3
9,4,-1
10,2,-3
9,2,0
8,-2,-1
6,0,1
5,-2,0
4,-1,0
4,1,0
1,-1,0
0,1,0
0,1,-3
2,0,0
5,2,0
4,1,1
3,0,1
6,0,-1
9,0,-1
8,-1,-1
9,2,0
9,-4,-1
11,-4,-1
10,-3,-2
9,-6,-2
11,-6,2
10,-6,0
14,-7,0
9,-6,0
11,-5,1
12,-7,1
9,-5,-1
7,-3,-3
8,-2,1
5,0,0
2,0,0
2,0,0
0,5,0
-2,4,-1
-7,5,-2
-5,3,-2
-3,3,-2
-5,5,1
-7,2,0
-5,1,1
-5,1,1
-2,-3,0
-5,-3,-1
4,-6,1
0,-2,-2
4,-3,1
4,-5,0
4,-4,2
6,-5,1
5,-1,0
5,0,-1
6,-1,0
5,0,0
4,5,2
4,3,0
3,4,0
1,4,-1
5,4,1
5,2,-1
3,2,2
3,0,1
5,3,-1
2,1,0
1,1,1
2,-1,-1
2,0,-2
2,1,-4
2,0,0
4,2,0
5,-1,-1
3,2,-1
2,0,1
3,-4,-1
3,-1,-2
2,-1,-2
4,-1,-1
4,0,0
0,-1,0
0,-2,0
3,-2,0
2,-5,0
3,-4,-1
5,-5,-1
2,-3,-1
3,-4,0
6,-5,0
3,-1,0
6,-2,3
7,1,0
9,0,-1
8,0,0
7,0,-3
2,3,-5
2,6,-4
-1,5,-4
-4,5,-5
-5,5,-1
-9,4,3
-13,7,1
-12,8,2
-15,11,2
-9,10,6
-2,10,8
4,8,4
11,8,3
20,5,3
23,3,1
30,1,-1
31,-3,-1
31,-5,-4
27,-9,-2
26,-8,0
22,-8,-1
15,-6,0
11,-5,5
4,-3,5
3,-2,9
0,1,9
-4,3,8
-3,1,5
0,0,4
-3,3,3
0,1,2
0,0,2
-1,1,-1
-1,-1,-1
0,-4,-2
0,-2,-5
3,-4,-3
0,-5,-4
3,-1,-3
0,-6,-3
0,-4,-3
-2,-6,-1
0,-5,-3
-2,-3,-3
-1,-5,-4
-3,-4,-4
-1,-5,-2
-3,-3,-5
-3,-2,-7
-2,-3,-5
-4,-3,-5
-2,-1,-6
-1,1,-7
-3,-2,-5
-5,1,-6
-6,2,-7
-5,0,-6
-6,2,-5
-7,2,-8
-8,2,-6
-8,3,-4
-9,5,-3
-7,7,-5
-4,4,-5
-1,7,-7
4,4,-11
4,4,-9
4,4,-9
6,-1,-10
6,-1,-11
4,-1,-10
8,-2,-7
1,-5,-6
0,-4,-7
-1,-4,-5
-3,-3,-5
-4,0,-3
-4,-2,-4
-5,0,-3
-6,2,0
-6,0,-4
-3,0,0
-5,0,-4
-2,-1,-3
1,0,-6
0,-3,-5
0,-1,-6
3,-6,-3
1,-5,-6
5,-3,-5
3,-6,-1
4,-4,-4
7,-8,0
6,-6,-1
7,-7,-1
8,-6,0
7,-3,0
5,0,0
5,-4,-1
6,2,0
5,3,0
6,3,-1
3,3,-2
2,1,1
3,0,0
1,-2,0
4,0,0
1,-1,1
0,-4,2
0,-1,3
2,-4,2
0,0,2
2,-1,4
2,-1,4
2,-1,7
6,-3,7
3,-3,8
6,-3,5
3,-1,6
2,1,6
4,-2,6
5,0,6
3,0,0
6,1,2
7,3,2
6,0,-1
9,3,1
9,2,-1
11,2,0
14,-2,-1
12,1,0
15,0,1
15,-4,2
12,-2,2
13,-6,3
12,-3,2
8,-4,4
10,-1,3
3,-4,5
4,-3,4
4,-1,3
0,1,1
1,0,5
0,-2,1
-2,-3,5
-2,1,-1
-2,-1,1
-3,3,-1
-2,0,-2
0,-1,-1
0,-1,-1
0,-1,0
4,-3,0
3,-4,2
4,-3,1
8,-2,3
7,0,3
11,0,1
12,-1,-2
14,-1,-3
13,1,-1
12,1,-8
11,2,-4
5,2,-4
3,4,-4
-3,6,-3
-7,5,1
-12,5,4
-14,6,10
-13,8,11
-11,7,13
-6,7,10
2,6,8
13,7,5
20,3,3
27,5,0
33,0,0
35,-2,-4
33,-7,-6
36,-9,-1
30,-7,-4
25,-8,-3
19,-8,1
14,-7,2
7,-4,4
1,-1,6
-2,-1,6
-3,0,7
-3,2,9
-8,6,8
-4,7,5
-3,6,5
-5,7,0
-1,5,0
-1,3,-1
-1,2,-3
2,3,-6
5,0,-6
5,-2,-3
2,-5,-5
5,-9,-1
8,-6,-4
8,-8,-4
9,-5,0
6,-7,0
8,-7,0
8,-5,0
6,-7,1
4,-2,2
0,-1,2
3,0,0
6,-1,1
4,3,0
0,3,-2
1,5,1
-2,3,-1
-4,8,1
0,7,0
-4,6,0
-2,5,1
0,6,1
0,4,4
3,7,3
7,3,3
9,8,0
12,6,0
17,4,3
17,0,1
17,1,0
18,0,0
18,-2,0
12,-2,0
9,-5,2
7,-5,1
2,-5,-1
2,-2,2
-2,2,0
1,1,0
-1,2,2
-1,4,2
-2,4,0
-4,6,-1
0,6,-3
-1,3,-1
1,-1,-3
3,4,-3
7,0,-2
9,-2,-2
9,-6,-2
10,-5,0
9,-7,-4
9,-7,-2
10,-8,0
10,-6,-1
11,-3,1
10,-3,0
6,-3,0
7,-1,-1
8,0,0
5,3,-1
5,3,-1
4,4,-1
2,6,-1
-1,4,-2
-1,4,0
0,3,1
-4,5,-3
-3,2,0
-2,3,0
-5,2,5
-4,1,3
-4,0,5
-1,1,2
-2,0,5
0,3,3
1,0,2
-1,1,2
1,3,-1
3,3,0
1,3,0
1,4,-2
1,4,3
0,6,0
2,6,1
0,7,1
-2,8,0
-3,8,0
-2,8,0
-3,5,-3
-5,7,-3
-7,8,-2
-8,7,-3
-1,5,0
-1,4,0
0,2,-3
0,2,0
1,3,-4
1,0,0
4,-1,-4
2,-1,-3
4,-1,-2
3,-1,-2
3,0,0
4,-1,2
0,-1,-2
2,0,-2
5,-2,0
4,2,1
1,2,1
8,4,-3
9,5,-3
9,7,-5
13,5,-6
12,5,-6
8,5,-10
6,5,-8
1,9,-1
-3,6,-6
-9,3,2
-15,9,3
-19,5,7
-19,6,9
-18,8,11
-10,11,10
-2,9,10
8,8,7
17,11,6
26,9,3
34,5,0
37,2,-2
40,0,-1
38,-2,0
34,-2,1
31,-3,-2
26,-5,0
21,-4,3
15,-1,7
9,-2,6
4,2,8
0,4,7
1,7,9
-1,8,7
-1,7,3
-2,7,5
0,6,3
-3,3,3
0,1,0
1,0,-2
1,-1,-2
4,-5,-2
2,-8,-2
5,-9,-1
5,-11,-1
4,-9,-4
6,-12,-1
4,-11,0
6,-10,0
5,-7,-1
5,-6,0
6,-2,-1
5,-3,-3
3,0,-1
4,2,-4
3,3,-2
2,4,0
-2,4,-5
-2,6,-3
-5,6,0
-8,5,0
-10,6,0
-12,9,2
-11,6,4
-12,4,2
-10,6,4
-4,7,1
0,5,4
4,4,3
10,4,3
15,3,1
14,3,3
21,2,3
20,2,2
21,0,4
19,0,0
17,-3,5
14,0,0
15,0,3
16,1,4
15,2,6
15,4,6
15,1,4
15,4,5
16,1,5
13,2,5
12,1,5
14,4,5
13,1,1
14,1,0
17,-1,5
15,-3,-1
13,-6,1
13,-5,2
10,-5,3
10,-1,3
11,-4,2
11,-4,3
10,-4,-2
8,-5,0
9,-3,-2
7,-4,0
4,-2,-5
2,0,-4
2,2,-4
0,1,-1
-2,1,-1
-4,4,-2
-6,3,-3
-6,4,0
-7,4,-5
-9,3,-2
-4,3,0
-3,3,0
-3,3,0
1,1,1
-3,4,0
2,3,3
3,3,1
4,1,2
7,3,2
7,2,0
7,0,2
10,0,1
12,0,0
8,-1,1
6,0,3
8,-2,4
6,-1,3
7,-1,4
5,-1,2
5,-1,5
6,0,0
7,-1,3
7,-2,3
8,1,0
9,1,3
9,1,3
12,3,3
11,3,1
10,3,1
14,4,0
12,3,-3
13,6,-5
10,8,-6
7,8,-7
2,5,-7
0,9,-7
-7,8,-5
-13,7,-3
-19,6,3
-20,7,7
-23,8,5
-19,8,8
-11,6,6
-6,7,5
4,6,3
15,4,3
21,2,0
24,2,-2
30,0,-1
31,-4,-3
26,-6,-2
23,-7,-2
18,-10,1
11,-5,0
6,-3,4
4,-1,7
0,-2,8
-3,0,10
-4,1,11
-2,3,13
-4,4,11
-2,1,12
0,0,9
0,-3,10
4,-6,12
7,-10,13
7,-15,9
15,-21,12
13,-26,13
17,-30,10
15,-32,11
18,-33,12
20,-29,12
17,-27,13
18,-28,10
18,-21,8
18,-18,8
17,-15,8
13,-7,5
14,-4,6
9,0,4
8,2,2
8,4,0
7,4,1
6,7,1
4,7,2
3,5,4
4,7,5
3,5,6
1,2,4
0,3,6
-2,1,7
1,-1,7
3,2,5
5,0,4
10,1,2
17,0,-1
18,0,-3
14,1,-2
17,0,0
14,1,-2
12,-1,0
9,-1,0
8,0,1
4,2,0
5,0,4
2,2,-1
1,3,-2
2,3,0
-1,6,0
2,4,1
4,2,0
2,3,0
5,2,-1
3,1,0
4,1,-5
6,-1,-1
9,-1,-4
7,-3,-2
7,0,-4
5,0,-3
8,-1,1
8,2,-1
8,0,-3
9,0,-4
8,0,0
12,-2,-2
8,2,-4
11,0,0
10,0,-1
7,2,-5
5,2,-3
5,3,-5
3,2,-5
-1,3,-4
0,4,-4
-4,6,-3
-3,6,-1
-7,8,-1
-5,6,-1
-8,7,-1
-8,10,0
-3,9,-3
-7,9,-2
-6,11,-2
-3,9,-1
-2,11,-2
0,10,0
0,10,0
0,9,-1
1,7,-1
2,5,0
2,5,1
2,2,-1
0,2,-3
0,2,-3
4,0,-1
5,-3,0
5,2,1
5,3,0
7,4,1
7,4,1
3,3,-1
3,5,-4
5,6,-8
5,6,-4
1,11,-7
-1,10,-10
-5,15,-11
-10,15,-7
-16,16,-7
-24,18,-3
-25,14,0
-26,13,-1
-26,14,1
-25,9,5
-22,9,1
-14,10,4
-1,7,7
8,9,1
14,6,0
23,6,0
27,4,-6
25,0,-5
23,1,-4
22,0,-4
14,-1,-4
9,1,-1
4,6,1
-4,8,1
-6,10,3
-9,14,3
-11,14,6
-10,16,3
-9,14,5
-8,17,3
-7,19,3
-6,15,3
-4,13,1
-5,11,1
-3,7,0
0,4,-3
0,0,-3
1,-3,-4
0,-5,-6
2,-9,-5
1,-11,-2
2,-13,-4
1,-14,-4
1,-15,-3
0,-13,-1
0,-8,0
0,-10,3
0,-7,3
0,-5,0
-1,-6,-1
0,-8,2
-1,-4,0
0,0,0
1,0,-2
0,-1,0
-2,1,0
-4,-1,0
-5,-3,2
-6,-7,3
-5,-9,6
-5,-6,8
-3,-6,4
-2,-12,5
5,-13,7
9,-11,1
11,-9,-1
14,-9,3
15,-11,1
13,-10,-2
12,-10,0
9,-10,-1
9,-11,2
5,-10,2
2,-5,-2
2,-5,-3
3,-5,-2
2,-3,-1
2,0,-3
3,1,-2
4,3,-2
4,4,0
5,3,-1
5,10,-1
4,4,-3
4,5,-3
5,9,-3
3,7,-2
4,6,-3
3,8,-2
0,8,0
0,11,-5
1,4,-5
0,0,-3
2,-1,-8
2,-4,-6
3,-6,-5
4,-10,-5
3,-12,-4
2,-18,-4
3,-21,-1
0,-23,0
4,-26,1
1,-27,-1
4,-31,0
4,-30,1
6,-28,0
2,-21,0
2,-23,0
5,-23,0
4,-23,-1
3,-25,-2
2,-20,-2
4,-19,1
5,-14,-1
3,-8,0
1,-3,-3
2,-3,-3
3,1,-2
1,6,-1
0,7,-1
0,11,-3
2,13,-1
4,12,-3
3,15,-4
8,18,0
6,15,-1
7,19,-4
4,16,-5
3,19,-7
1,17,-4
0,13,-10
0,11,-4
-3,13,-2
-2,11,0
-5,11,0
-6,9,3
-6,15,0
-6,16,1
-7,16,-1
-7,20,-2
-6,20,-4
-7,16,-3
-11,20,-7
-15,20,-8
-21,19,-3
-25,17,0
-31,15,2
-34,22,3
-36,18,5
-32,21,4
-30,21,6
-22,20,3
-11,16,2
2,14,1
10,11,-3
19,11,-2
23,8,-4
26,4,-6
26,0,-6
22,-1,-4
20,-3,-2
17,-1,0
12,-6,0
7,-8,2
4,-10,1
0,-9,3
0,-10,5
-5,-13,6
-6,-9,4
-6,-7,4
-4,-12,3
-4,-10,2
-5,-11,2
-2,-14,1
-4,-13,-3
-4,-18,-2
-3,-18,-5
-1,-20,-1
-1,-24,0
-1,-24,-1
2,-25,-1
2,-26,-3
4,-24,0
4,-22,1
8,-22,3
7,-18,0
6,-13,3
7,-9,1
7,-6,6
10,-4,6
9,-5,3
6,-3,1
11,-3,3
8,-4,2
7,-2,0
6,-5,2
3,-6,3
1,-5,4
4,-6,4
5,-6,5
0,-2,4
1,-1,6
1,0,8
6,-1,5
12,-2,2
15,-4,3
18,-3,1
18,-7,2
21,-4,0
22,-11,1
19,-11,0
16,-10,1
15,-12,-1
15,-10,1
10,-11,-4
11,-9,-1
8,-5,0
8,-2,-2
5,-1,-3
0,3,-3
2,1,-3
0,5,-5
-1,2,-5
0,6,-6
1,3,-9
2,1,-9
6,0,-10
4,1,-11
8,1,-7
5,2,-8
8,2,-9
6,5,-6
8,4,-5
6,5,-7
10,6,-4
6,10,-4
7,7,-5
7,4,-4
7,3,-3
7,4,-4
5,1,0
6,4,3
3,0,2
2,-1,0
2,0,6
0,0,5
1,0,8
1,1,3
3,4,4
2,4,8
5,5,7
6,5,6
6,6,10
9,6,8
8,9,12
7,9,10
14,6,11
11,8,10
12,8,8
12,9,7
13,9,4
15,8,4
14,5,5
14,5,3
13,4,4
13,4,5
13,3,5
13,-2,6
9,0,3
7,2,4
6,-1,3
7,2,4
7,-2,4
6,-3,3
4,-2,1
3,-5,3
3,-4,2
2,-4,5
0,-3,1
0,0,-3
0,0,-2
-2,4,-5
-2,3,-2
-4,4,-3
-10,7,-7
-11,7,-4
-12,10,-1
-17,9,0
-19,9,5
-20,9,7
-18,5,8
-11,10,7
-3,10,10
8,7,6
17,7,7
27,6,9
35,1,8
39,1,8
41,-1,6
39,-5,2
37,-4,5
34,-8,5
30,-6,5
21,-6,1
15,-2,5
9,1,3
4,0,4
-1,7,4
-2,8,4
-6,9,2
-8,8,6
-9,8,3
-10,8,8
-6,5,9
-8,6,6
-5,1,8
-7,0,3
-6,-2,2
-4,-4,2
-6,-5,0
-2,-5,2
-2,-5,3
0,-6,0
0,-6,1
0,-3,0
-1,-2,-1
0,-2,-2
0,-2,0
0,2,-2
1,3,0
2,3,-2
1,1,-3
2,0,-3
2,2,-4
2,5,-1
3,3,-2
4,2,-1
6,3,1
3,2,3
4,0,4
4,2,4
5,2,4
5,2,7
3,2,6
10,3,6
12,3,3
15,3,6
19,1,0
20,2,2
23,1,-1
23,2,1
20,0,2
19,1,-3
16,-1,1
15,-4,1
12,-3,0
9,0,-1
9,-1,0
7,1,-2
6,2,1
6,4,0
1,3,0
1,4,0
0,5,0
1,2,1
-1,4,0
-1,2,-2
-3,2,-1
2,2,-1
0,0,-3
2,0,-3
0,0,-3
3,-1,-5
3,-2,-2
2,-1,-4
2,-1,-2
4,0,-2
5,-3,-1
4,-2,0
5,-2,-1
5,-1,-2
5,-4,-4
4,-2,-3
2,-3,1
0,0,1
-1,-2,1
-2,-1,-2
-2,-1,0
-3,-1,2
-1,-1,3
-1,0,0
1,0,2
1,-1,4
4,0,0
3,2,3
8,0,-1
8,1,0
11,0,3
10,0,3
10,-1,1
7,-1,1
6,0,0
2,-1,1
8,4,-3
4,3,0
4,4,-3
4,6,0
2,6,-5
1,7,-4
0,7,-1
3,4,-2
3,3,-3
3,5,-3
2,1,-3
0,3,-2
1,3,-2
-2,2,-2
-4,5,-5
-8,5,0
-8,5,2
-14,8,2
-19,10,1
-22,10,3
-17,10,6
-13,10,9
-11,10,5
-3,12,4
7,11,3
12,12,-1
20,9,-2
21,7,-2
29,4,-4
29,1,-5
28,-1,-6
28,-3,-8
26,-6,-4
20,-7,-4
21,-8,-3
15,-10,0
10,-4,0
8,-5,4
6,-4,5
2,-2,3
0,0,5
-1,0,3
-5,2,5
-6,1,4
-8,1,4
-7,2,5
-7,0,1
-6,-1,0
-6,-1,-2
-4,0,-3
-3,-1,-5
0,0,-4
1,-2,-3
3,-2,-4
1,-7,-4
1,-1,-4
5,-4,-3
5,-7,-2
5,-6,-3
5,-5,-3
4,-5,-4
3,-5,0
2,-6,0
4,-5,0
3,-3,-4
-1,-2,-3
1,-5,-2
-3,-5,-1
-7,-5,0
-8,-3,-3
-8,-4,0
-8,-2,-1
-13,-2,2
-10,-3,1
-11,-3,4
-11,-4,-1
-7,-4,0
-7,-6,0
-4,-6,-1
-3,-4,1
-4,-10,-3
-1,-12,-2
-1,-18,-3
-2,-15,0
-1,-15,-1
0,-15,0
0,-10,0
0,-10,1
0,-7,2
-1,-6,-4
-2,-5,-2
0,-4,-2
0,-3,-1
-3,0,-3
-2,-3,-5
-2,0,-5
-6,-3,-5
-4,-3,-4
-3,-3,-5
1,-3,-1
-1,-6,-1
-1,-4,-2
1,-6,1
-1,-8,1
1,-6,0
3,-8,0
1,-8,2
4,-6,2
5,-7,1
3,-5,1
5,-4,2
5,-1,-1
5,-2,-2
3,0,-2
3,0,-3
4,0,2
2,-1,-2
3,0,0
3,-1,2
3,-2,3
3,-1,2
3,-3,4
2,-3,5
0,-5,2
0,-4,3
1,-1,2
0,-4,0
1,-2,3
0,-3,0
0,-1,5
-2,0,2
1,0,2
-1,2,0
-1,2,1
-2,0,1
0,-3,1
-1,0,1
0,-2,4
-1,0,1
2,0,3
0,0,0
0,0,3
0,0,3
2,-5,2
2,0,1
2,-1,0
1,-3,0
2,-1,-1
-2,-1,0
-1,-4,0
2,-2,0
0,-2,-1
0,0,0
0,-2,0
0,0,1
0,-1,0
0,-2,5
0,0,3
0,0,0
3,-1,3
1,0,4
1,0,2
1,0,0
3,0,2
0,-3,2
2,-2,1
4,0,2
2,-2,1
3,-1,1
5,-1,3
7,-2,4
6,-13,2
5,-3,5
9,-5,3
4,-6,3
4,-11,2
5,-4,4
7,-2,5
6,-3,7
6,0,8
9,-2,10
3,0,10
4,0,11
5,-1,13
5,0,13
5,-1,14
6,1,14
11,2,13
9,2,10
11,1,12
9,1,9
9,2,8
10,1,10
9,2,10
9,5,7
10,3,8
10,3,7
8,5,5
9,-1,6
9,-1,6
9,3,7
6,4,6
7,2,9
7,3,7
8,3,7
4,4,8
5,5,7
5,5,5
8,2,4
6,5,6
6,3,4
3,2,2
5,1,3
4,0,1
3,0,4
3,-1,3
4,-1,1
3,0,2
3,-4,1
5,-8,3
6,-10,1
9,-13,1
8,-11,-1
8,-12,-1
9,-10,-1
9,-5,-1
7,-5,-3
8,0,-4
2,6,-2
-1,8,-8
-7,11,-7
-8,13,-6
-11,11,-3
-16,11,-3
-21,13,-1
-24,14,1
-24,13,4
-26,14,6
-20,14,3
-17,15,2
-10,12,2
-4,12,0
3,9,4
6,8,1
10,5,-2
15,2,-1
18,2,-3
18,-1,-4
12,0,-3
12,0,-4
10,-1,-2
9,-4,-2
5,0,-1
3,-1,4
4,0,6
1,5,6
2,5,7
0,7,3
3,8,6
2,9,3
1,9,4
3,8,0
2,6,0
1,1,1
1,2,0
3,2,0
2,-1,-4
2,0,-3
2,0,-3
0,0,-2
-1,-1,-3
1,-2,0
0,-2,-1
2,-5,-1
2,0,-2
0,0,-3
0,0,-2
1,1,-3
0,0,-1
3,1,-3
3,2,-5
0,0,-9
3,0,-3
2,4,-3
0,-1,-2
2,0,0
1,0,0
0,3,-2
0,0,-1
-1,2,0
-1,4,-3
-1,5,-4
1,4,-1
1,7,-2
4,1,-1
3,4,0
5,3,0
6,2,2
7,0,-1
6,2,0
8,-1,2
4,-1,1
4,-5,1
4,-1,2
3,2,0
1,1,1
0,3,3
1,2,2
1,5,0
2,5,1
2,7,0
1,4,0
0,6,0
2,6,-1
3,2,0
2,3,0
1,-2,0
4,-4,1
5,-9,0
4,-11,2
4,-10,0
7,-12,0
6,-14,-1
4,-11,-4
8,-8,-4
7,-10,-3
7,-7,-2
4,-3,-4
3,-4,0
3,-1,-2
2,0,-1
-2,0,-1
0,2,-4
-3,1,-3
-4,2,1
-4,6,-1
-6,3,1
-4,0,0
-6,2,0
-2,6,0
-2,2,2
0,1,4
0,3,3
2,6,1
8,1,3
7,3,0
7,3,3
7,0,1
7,1,4
7,3,2
11,1,1
9,0,3
10,1,1
7,3,1
9,2,2
8,3,4
9,2,1
6,4,5
7,3,0
7,3,1
6,2,2
7,0,0
4,0,-1
2,0,2
3,3,0
2,3,2
1,1,0
3,0,-1
1,2,-2
0,4,-2
0,2,-2
0,3,-2
-1,4,-2
-2,5,-4
0,2,0
-3,4,0
-4,5,-1
0,2,0
-4,0,0
-1,1,-1
-1,0,0
1,0,3
2,0,1
2,-1,-1
2,-1,-1
4,1,1
3,3,-2
4,-1,0
3,2,0
7,2,0
5,0,0
4,2,0
4,0,0
5,1,1
4,0,0
3,1,0
3,0,0
3,2,1
6,1,1
5,2,0
6,1,0
7,0,0
9,0,0
9,0,-3
7,0,1
10,0,2
7,1,-1
7,0,0
8,0,-1
7,-3,-1
7,-2,-4
3,-3,-3
6,0,-1
3,-1,-1
5,-1,1
5,0,0
3,0,2
6,0,2
3,2,0
8,3,0
2,3,0
2,3,-1
-3,5,-4
-4,7,-1
-7,6,-4
-12,5,-2
-13,2,-1
-17,2,1
-15,5,4
-16,3,5
-16,5,7
-8,6,4
0,6,4
4,6,2
9,7,0
18,5,1
21,0,-2
24,1,-2
25,-3,-2
26,-3,-1
21,-4,-1
18,-5,-1
15,-2,-1
9,-3,2
4,0,6
4,1,4
-1,5,2
-2,0,4
-1,7,5
-3,5,1
-3,3,2
0,4,3
-1,2,1
2,0,1
0,-3,-2
2,-5,0
3,-4,-2
0,2,-2
-1,-5,-1
3,-5,-1
3,-5,-1
2,-5,0
2,-7,0
4,-7,-2
5,-4,-2
1,0,0
3,-2,-2
3,-2,-3
-1,1,-3
1,1,-3
0,0,-3
1,-1,-3
1,0,-1
0,2,-3
1,0,-1
0,0,1
0,-1,1
-3,-1,1
-4,0,0
-3,0,3
-2,1,2
-1,0,4
-3,0,3
-2,2,3
0,4,0
2,9,1
6,4,0
9,1,0
12,0,-1
12,0,-3
13,0,0
10,-1,-3
11,0,-1
9,2,-2
6,-4,-1
5,0,1
0,-1,4
1,-1,0
0,0,3
0,0,2
0,2,1
-1,2,0
1,6,0
0,5,-1
2,1,-2
4,4,1
5,0,0
3,0,-1
7,-2,-1
6,0,0
6,-3,0
5,-8,0
8,-3,-2
8,-6,-3
7,-5,0
8,-4,-4
5,-4,-2
5,-3,-2
6,-2,-3
8,-3,0
2,-5,0
5,-3,0
1,-3,-3
-1,0,1
0,1,-3
-1,0,-2
0,0,0
-4,-2,-3
-2,-2,0
-6,0,0
-4,-1,0
-4,-5,0
-4,0,1
-2,1,-2
-1,1,-2
2,0,0
0,0,-1
1,0,0
2,-1,0
4,0,-1
1,0,-1
3,-1,1
-2,4,-2
3,-1,0
2,-2,0
2,1,-1
4,0,1
3,0,0
3,1,-3
3,0,-1
2,4,-2
2,2,-3
3,2,-1
5,1,-4
2,2,-3
2,1,-4
0,3,-1
1,3,-4
4,3,-2
2,2,-4
2,0,-2
0,0,0
-3,0,-4
-1,-1,-3
-2,-2,-3
0,-2,-2
0,-1,-3
-2,-2,-4
-3,-2,-2
-4,0,-1
-3,-1,-3
0,0,-2
-4,-3,-5
-3,-2,-4
-3,-3,-4
-5,-2,-1
-2,-1,-6
-4,-1,-3
-2,1,-3
-2,-1,-5
-3,2,-3
0,0,-3
0,0,-3
4,0,-4
2,0,-1
5,0,-2
2,0,-4
5,0,-2
4,0,-1
6,2,-4
4,-1,-4
7,-2,-3
3,-2,-4
4,-1,-3
3,-3,0
3,-2,-1
3,-1,-1
2,1,-1
4,-2,1
6,0,0
9,-1,-2
7,0,-2
7,3,-4
6,2,-5
4,0,-5
3,1,-5
0,3,-4
-4,0,-1
-10,2,0
-14,5,3
-17,4,3
-13,4,8
-11,4,9
-5,4,4
2,7,8
9,5,3
14,5,1
25,5,-2
29,2,-2
30,0,-4
33,0,-6
31,0,-5
26,-2,-3
21,-2,0
15,-3,-2
12,0,3
6,-1,5
3,-3,5
2,-1,9
2,0,11
0,0,11
5,0,9
1,0,5
5,2,4
4,1,4
5,0,1
5,2,-4
5,1,0
7,-2,0
2,0,-3
5,-3,0
7,-4,0
7,-6,-2
6,-6,-1
8,-6,-1
8,-5,1
7,-5,-1
9,-7,2
10,-4,0
11,-8,1
7,-5,-1
9,-5,-3
6,-5,-2
4,-2,-1
2,-1,0
1,0,-5
-1,1,-1
-1,1,-1
-7,2,2
-6,5,-1
-11,3,0
-14,4,0
-13,5,0
