79312
79343
79402
79396
79325
79255
79187
79157
79170
79191
79227
79252
79264
79327
79344
79379
79378
79386
79394
79388
79387
79404
79409
79413
79436
79453
79452
79462
79494
79478
79523
79473
79380
79283
79233
79228
79262
79279
79335
79365
79405
79450
79503
79501
79515
79523
79527
79537
79536
79525
79540
79561
79554
79554
79587
79602
79625
79679
79699
79705
79673
79612
79603
79621
79696
79792
79929
79994
80098
80134
80201
80196
80200
80209
80214
80216
80217
80204
80207
80207
80200
80209
80196
80202
80201
80200
80191
80203
80214
80215
80206
80203
80213
80237
80221
80215
80215
80205
80205
80185
80206
80212
80208
80196
80172
80162
80159
80156
80171
80161
80159
80142
80135
80128
80099
80128
80163
80212
80219
80226
80203
80224
80210
80203
80181
80161
80137
80110
80096
80092
80104
80097
80095
80087
80078
80100
80089
80095
80099
80101
80084
80099
80097
80127
80206
80197
80188
80196
80183
80197
80180
80170
80165
80180
80189
80167
80185
80191
80181
80163
80185
80157
80177
80164
80175
80159
80156
80150
80151
80149
80150
80138
80081
79945
79859
79829
79778
79774
79770
79765
79769
79784
79801
79810
79806
79805
79770
79750
79725
79726
79678
79666
79633
79630
79553
79673
79745
79812
79770
79742
79688
79561
79359
79222
79054
78913
78785
78636
78475
78375
78302
78218
78151
78036
77912
77819
77762
77645
77551
77461
77389
77358
77327
77289
77250
77252
77263
77296
77311
77293
77255
77231
77192
77107
76915
76682
76572
76505
76460
76425
76409
76409
76408
76409
76418
76432
76412
76386
76334
76258
76231
76204
76209
76191
76207
76212
76219
76224
76259
76267
76273
76299
76332
76327
76326
76219
76019
75915
75821
75799
75789
75804
75835
75861
75915
75965
76009
76068
76072
76096
76108
76103
76130
76127
76146
76181
76189
76223
76237
76249
76266
76309
76312
76344
76359
76351
76314
76157
76005
75870
75836
75808
75827
75850
75904
75944
75959
76044
76081
76120
76169
76156
76162
76166
76191
76190
76213
76237
76252
76282
76273
76296
76324
76326
76352
76352
76304
76159
75974
75877
75825
75801
75811
75817
75846
75856
75918
75957
76008
76024
76045
76029
76038
76031
76057
76054
76084
76101
76105
76119
76125
76159
76168
76175
76193
76159
76027
75844
75715
75642
75623
75626
75614
75644
75684
75713
75771
75788
75801
75822
75822
75811
75804
75817
75829
75840
75856
75852
75876
75904
75901
75918
75932
75949
75912
75738
75570
75439
75402
75383
75377
75370
75414
75443
75456
75529
75569
75583
75589
75587
75575
75582
75572
75585
75615
75630
75638
75685
75683
75704
75718
75743
75768
75758
75709
75534
75372
75240
75193
75190
75177
75210
75216
75243
75305
75330
75373
75397
75424
75409
75404
75430
75439
75449
75473
75493
75502
75532
75554
75576
75594
75611
75623
75648
75674
75688
75716
75699
75654
75452
75312
75180
75130
75108
75123
75133
75171
75202
75239
75296
75334
75356
75390
75404
75387
75384
75402
75429
75437
75461
75480
75523
75527
75546
75557
75597
75622
75640
75657
75671
75699
75711
75749
75752
75675
75483
75305
75210
75198
75186
75216
75234
75282
75313
75357
75423
75453
75518
75538
75546
75552
75549
75551
75578
75595
75625
75650
75681
75706
75730
75773
75789
75807
75811
75845
75847
75870
75867
75754
75589
75467
75388
75373
75402
75461
75487
75507
75562
75585
75630
75653
75704
75707
75700
75723
75740
75774
75814
75846
75891
75945
75971
75995
76047
76077
76126
76154
76205
76238
76282
76301
76309
76197
76068
75972
75942
75928
75939
75986
76020
76068
76093
76144
76204
76242
76275
76287
76305
76324
76331
76350
76382
76405
76428
76466
76516
76531
76540
76549
76571
76596
76635
76655
76637
76542
76438
76382
76363
76373
76404
76423
76453
76476
76491
76517
76550
76584
76552
76589
76577
76613
76610
76619
76647
76654
76668
76686
76702
76731
76739
76767
76758
76779
76790
76784
76682
76575
76518
76456
76448
76470
76474
76504
76533
76553
76580
76622
76627
76655
76674
76653
76675
76686
76724
76727
76759
76743
76781
76761
76770
76784
76780
76828
76810
76793
76752
76642
76524
76471
76436
76425
76461
76467
76498
76541
76563
76587
76615
76638
76648
76630
76630
76633
76653
76679
76669
76711
76720
76744
76761
76763
76769
76811
76797
76812
76847
76834
76775
76669
76558
76513
76490
76472
76520
76527
76554
76582
76605
76629
76657
76674
76690
76675
76716
76712
76711
76718
76751
76761
76771
76774
76795
76836
76831
76873
76872
76901
76894
76921
76918
76952
76953
76884
76764
76654
76614
76584
76597
76635
76655
76691
76738
76751
76799
76831
76843
76864
76867
76858
76865
76840
76845
76845
76860
76879
76910
76926
76941
76971
77009
77041
77039
77059
77086
77106
77134
77157
77172
77177
77116
76976
76894
76842
76837
76852
76872
76906
76925
76978
77003
77053
77073
77129
77135
77138
77132
77158
77174
77211
77227
77258
77278
77292
77308
77346
77389
77406
77405
77418
77440
77426
77462
77483
77487
77454
77353
77258
77207
77173
77193
77187
77221
77220
77258
77286
77315
77338
77357
77375
77385
77359
77381
77382
77419
77429
77434
77448
77433
77445
77462
77488
77478
77496
77516
77537
77511
77543
77536
77484
77367
77282
77238
77220
77226
77232
77260
77286
77290
77291
77362
77356
77385
77389
77377
77393
77399
77415
77435
77423
77449
77470
77476
77532
77545
77542
77572
77573
77608
77619
77649
77580
77471
77408
77338
77326
77332
77354
77356
77392
77417
77440
77466
77503
77528
77534
77549
77545
77549
77551
77574
77584
77594
77610
77618
77635
77629
77658
77657
77672
77683
77701
77618
77516
77427
77386
77352
77370
77370
77395
77387
77418
77436
77456
77461
77487
77485
77483
77485
77456
77486
77494
77505
77512
77504
77528
77530
77527
77524
77570
77564
77572
77585
77588
77511
77394
77307
77244
77207
77209
77213
77234
77250
77270
77288
77318
77331
77368
77375
77378
77334
77357
77378
77373
77414
77396
77396
77427
77434
77468
77478
77481
77507
77517
77542
77542
77560
77547
77575
77577
77590
77590
77617
77578
77466
77330
77234
77216
77190
77205
77212
77237
77261
77279
77300
77347
77373
77384
77374
77403
77401
77394
77414
77434
77427
77466
77463
77480
77507
77504
77508
77540
77554
77567
77584
77599
77620
77629
77629
77647
77656
77622
77507
77405
77322
77311
77303
77297
77329
77348
77373
77407
77428
77460
77461
77485
77475
77471
77466
77458
77483
77488
77505
77485
77509
77548
77563
77585
77594
77606
77616
77619
77628
77661
77648
77636
41941
77477
77405
77330
77335
77331
77343
77359
77358
77393
77422
77453
77476
77512
77522
77498
77500
77485
77491
77488
77512
77537
77545
77573
77559
77586
77582
77584
77619
77607
77635
77652
77645
77645
77606
77481
77391
77332
77325
77324
77340
77338
77350
77362
77385
77416
77437
77484
77464
77476
77481
77441
77474
77461
77495
77486
77497
77512
77536
77520
77563
77551
77558
77567
77569
77574
77574
77493
77381
77298
77239
77187
77195
77191
77209
77236
77245
77272
77315
77320
77335
77343
77326
77343
77327
77352
77353
77384
77381
77373
77378
77422
77399
77415
77434
77445
77461
77462
77481
77482
77492
77446
77313
77212
77140
77146
77118
77131
77137
77165
77161
77179
77210
77247
77256
77277
77258
77252
77246
77264
77286
77270
77291
77335
77315
77337
77329
77360
40710
77361
77373
77397
77406
77441
77445
77457
77453
77461
77485
77486
77521
77505
77477
77368
77208
77140
77107
77062
77075
77100
77139
77133
77160
77180
77211
77237
77245
77246
77265
77248
77262
77267
77286
77281
77309
77308
77334
77331
77354
77373
77380
77386
77402
77415
77437
77438
77481
77465
77491
77505
77521
77552
77497
77428
77328
77253
77198
77212
77217
77233
77283
77284
77289
77287
77278
77262
77278
77272
77271
77279
77310
77309
77321
77331
77340
77350
77370
77377
77388
77383
77428
77431
77441
77454
77460
77460
77486
77499
77471
77396
77274
77173
77123
77126
77149
77143
77160
77200
77230
77235
77299
77335
77358
77365
77390
77397
77390
77410
77407
77450
77469
77474
77489
77500
77507
77506
77543
77531
77550
77572
77565
77580
77598
77633
77617
77624
77621
77549
77420
77377
77369
77348
77351
77381
77400
77421
77441
77448
77482
77477
77506
77503
77508
77481
77471
77486
77492
77510
77525
77514
77523
77520
77543
77574
77572
77570
77589
77592
77625
77609
77620
77603
77524
77411
77351
77319
77316
77303
77305
77338
77351
77362
77399
77406
77409
77418
77424
77407
77409
77393
77408
77414
77426
77418
77415
77430
77411
77431
77436
77445
77451
77421
77453
77451
77442
77355
77247
77174
77129
77106
77112
77122
77146
77138
77133
77172
77174
77225
77211
77229
77198
77206
77210
77199
77215
77208
77215
77199
77218
77231
77246
77224
77242
77242
77257
77276
77259
77286
77267
77250
77164
77037
76982
76960
76922
76931
76951
76956
76965
76973
76982
76983
77032
77053
77053
77048
77047
77025
77035
77075
77051
77073
77074
77091
77082
77098
77123
77120
77125
77125
77170
77156
77193
77203
77208
77239
77254
77258
77268
77252
77146
77051
76972
76937
76905
76918
76934
76933
76965
76989
76982
77020
77036
77068
77049
77081
77066
77082
77072
77078
77103
77128
77132
77133
77142
77172
77176
77217
77206
77238
77225
77232
77273
77268
77285
77303
77289
77310
77359
77353
77291
77188
77127
77038
77017
77016
77017
77055
77070
77077
77111
77118
77141
77174
77179
77184
77199
77203
77196
77205
77220
77248
77251
77249
77266
77270
77250
77256
77253
77273
77279
77235
77235
77274
77291
77277
77293
77324
77326
77290
77217
77134
77057
77035
77019
77022
77028
77038
77059
77076
77104
77132
77164
77157
77178
77186
77165
77171
77157
77199
77188
77190
77215
77218
77216
77229
77237
77258
77264
77275
77270
77289
77298
77302
77314
77307
77306
77231
77141
77070
77031
76985
76991
76993
77007
77030
77031
77031
77070
77086
77110
77093
77089
77088
77072
77081
77065
77094
77085
77099
77091
77103
77128
77117
77111
77116
77134
77127
77129
77153
77151
77141
77085
76990
76907
76859
76832
76824
76826
76859
76836
76848
76864
76870
76907
76924
76929
76920
76913
76911
76908
76901
76931
76929
76930
76935
76975
76962
76972
76970
76996
77000
77003
77035
77014
77072
77052
77070
77070
77043
77048
76972
76877
76799
76759
76741
76732
76734
76761
76734
76763
76757
76791
76827
76835
76845
76855
76861
76851
76842
76844
76852
76857
76870
76879
76877
76910
76916
76936
76941
76936
76977
76985
77001
77010
77019
77043
77047
77078
77081
77090
77071
76995
76872
76820
76754
76750
76735
76743
76752
76778
76800
76808
76834
76844
76853
76873
76870
76862
76860
76862
76870
76884
76875
76902
76909
76899
76917
76943
76943
76964
76965
76977
77006
77004
77016
77022
77051
77050
77087
77080
77088
77099
77109
77074
76995
76906
76837
76782
76751
76760
76760
76787
76781
76811
76834
76846
76886
76904
76907
76918
76888
76881
76870
76897
76904
76894
76927
76912
76923
76937
76955
76951
76970
76987
76990
77015
77017
77021
77037
77035
77070
39251
77065
77062
76985
76898
76811
76743
76724
76732
76724
76764
76772
76787
76797
76813
76848
76845
76861
76885
76849
76841
76861
76875
76884
76881
76880
76902
76905
76916
76942
76953
76952
76957
76959
76982
76971
76998
77009
77026
77038
77021
76948
76842
76774
76718
76699
76685
76713
76691
76719
76723
76744
76755
76785
76812
76825
76823
76847
76829
76828
76816
76861
76841
76868
76874
76894
76902
76908
76914
76940
76940
76941
76966
76970
76998
77026
77027
77048
77048
77053
77046
76974
76866
76782
76761
76703
76705
76714
76714
76726
76744
76755
76785
76812
76810
76848
76850
76835
76846
76840
76831
76838
76852
76837
76872
76868
76865
76908
76915
76912
76944
76957
76980
76980
76990
77011
77025
77057
77051
77064
77103
77095
77080
76987
76879
76797
76748
76753
76736
76752
76767
76779
76791
76797
76854
76864
76887
76874
76873
76871
76881
76887
76876
76876
76897
76893
76924
76936
76950
76954
76958
76985
76984
76999
77004
77011
77025
77037
77058
77049
77049
77081
77070
77023
76932
76824
76753
76725
76703
76693
76720
76728
76748
76762
76784
76792
76839
76856
76854
76851
76842
76838
76834
76842
76855
76861
76855
76893
76907
76909
76927
76921
76931
76938
76946
76967
76994
76996
76996
77025
77014
77042
77042
77034
76971
76843
76748
76680
76663
76657
76647
76666
76694
76692
76709
76737
76762
76801
76797
76811
76827
76803
76813
76815
76809
76808
76841
76844
76844
76871
76887
76880
76909
76898
76918
76920
76926
76940
76957
76965
76989
76995
77009
77004
77014
77026
77026
76956
76849
76745
76688
76659
76672
76651
76644
76705
76693
76701
76737
76753
76767
76782
76788
76761
76783
76792
76787
76785
76769
76790
76802
76800
76832
76838
76834
76857
76874
76866
76880
76900
76916
76913
76919
76952
76970
76985
76982
76996
77024
77055
77072
77061
76971
76886
76824
76774
76767
76770
76767
76782
76775
76808
76813
76819
76848
76854
76872
76865
76847
76820
76828
76831
76832
76854
76867
76875
76870
76874
76873
76909
76888
76894
76926
76925
76925
76929
76948
76946
76968
76987
76975
76985
76915
76788
76708
76666
76637
76631
76635
76653
76640
76670
76679
76709
76729
76754
76742
76768
76746
76746
76738
76753
76738
76764
76762
76800
76785
76820
76795
76834
76817
76858
76858
76863
76887
76903
76910
76913
76930
76946
76922
76836
76743
76644
76613
76580
76573
76584
76605
76593
76605
76635
76655
76699
76704
76743
76740
76731
76736
76736
76722
76759
76772
76787
76794
76801
76817
76827
76834
76835
76870
76886
76889
76910
76929
76944
76933
76969
76992
76996
77004
77026
77027
76927
76803
76712
76649
76635
76636
76635
76652
76675
76681
76695
76704
76753
76766
76790
76803
76783
76798
76813
76791
76796
76815
76816
76849
76851
76853
76874
76883
76904
76913
76944
76968
76969
76988
76998
77012
77047
77067
77074
77093
77108
77121
77132
77134
77057
76953
76846
76790
76754
76764
76772
76791
76797
76813
76847
76863
76886
76910
76925
76940
76944
76924
76924
76921
76949
76942
76974
76976
76994
76993
77011
77024
77020
77034
77039
77051
77071
77079
77105
77099
77106
77117
77142
77098
77038
76906
76822
76795
76780
76769
76788
76804
76803
76837
76868
76882
76935
76954
76945
76945
76928
76944
76937
76945
76959
76975
76984
76989
76994
77011
77003
77008
77014
77049
77042
77068
77088
77080
77122
77122
77140
77119
77051
76944
76848
76816
76757
76756
76753
76779
76819
76818
76828
76836
76888
76906
76951
76944
76946
76938
76948
76946
76965
76966
76970
76979
76995
77012
77019
77016
77028
77066
77052
77069
77092
77107
77132
77122
77168
77149
77186
77212
77228
77248
77228
77187
77061
76902
76820
76782
76758
76754
76760
76755
76774
76795
76817
76815
76858
76875
76902
76902
76889
76887
76890
76896
76894
76896
76932
76941
76951
76956
76976
76993
77000
77017
77057
77055
77081
77114
77106
77132
77139
77168
77172
77194
77201
77230
77238
77219
77237
77264
77246
77153
77007
76876
76814
76765
76763
76761
76783
76799
76824
76842
76861
76904
76932
76952
76965
76959
76944
76932
76941
76914
76936
76946
76949
76972
76988
76998
76986
77004
77020
77025
77057
77066
77072
77092
77103
77105
77122
77135
77139
77155
77108
76991
76830
76735
76684
76681
76684
76691
76706
76737
76764
76787
76797
76838
76864
76862
76890
76865
76848
76850
76849
76866
76883
76897
76901
76918
76937
76946
76957
76951
76973
76988
77006
77014
77017
77054
77048
77081
77092
77114
77122
77075
76940
76799
76697
76632
76614
76600
76619
76636
76657
76658
76692
76743
76755
76792
76812
76811
76794
76794
76798
76792
76805
76795
76839
76844
76864
76867
76895
76907
76924
76939
76955
76967
77001
76993
76993
77022
77037
77054
77078
77085
77093
77120
77105
77063
76923
76765
76665
76586
76577
76575
76580
76608
76614
76659
76672
76684
76712
76746
76762
76758
76737
76728
76715
76730
76745
76766
76774
76785
76785
76801
76829
76856
76860
76883
76897
76910
76914
76948
76956
76982
76983
77000
77014
77028
76998
76896
76769
76651
76597
76572
76561
76593
76618
76642
76652
76668
76701
76723
76761
76774
76782
76755
76730
76744
76737
76751
76751
76795
76809
76806
76823
76830
76846
76862
76871
76875
76871
76899
76912
76923
76922
76938
76900
76760
76638
76523
76479
76465
76487
76496
76499
76506
76514
76541
76544
76587
76612
76618
76610
76592
76577
76588
76582
76619
76621
76625
76644
76650
76674
76681
76694
76703
76719
76733
76743
76737
76758
76778
76800
76767
76679
76524
76423
76327
76296
76303
76316
76320
76337
76361
76369
76409
76432
76445
76480
76496
76479
76458
76449
76459
76479
76492
65768
76522
76530
76546
76565
76578
76588
76612
76635
76654
76677
76684
76722
76729
76743
76766
76792
76803
76820
76832
76840
76763
76625
76475
76360
76331
76297
76296
76318
76319
76359
76356
76392
76437
76452
76489
76516
76504
76497
76485
76488
76490
76501
76504
76508
76513
76551
76576
76583
76638
76650
76707
76707
76737
76756
76762
76795
76819
76835
76852
76872
76879
76905
76901
76907
76947
76956
76965
76904
76754
76625
76533
76513
76479
76527
76522
76566
76579
76597
76626
76662
76686
76724
76724
76699
76706
76673
76700
76711
76736
76724
76749
76751
76764
76757
76786
76801
76810
76812
76830
76853
76849
76891
76931
76939
76940
76938
76956
76987
76988
76978
76897
76724
76627
76563
76580
76638
76716
76792
76850
76827
76832
76849
76910
76916
76761
76509
76440
76362
76325
76316
76284
76265
76201
76154
76052
75986
75948
75875
75815
75731
75628
75541
75436
75369
75312
75272
75185
75095
75053
75027
75035
75002
74923
74852
74843
74851
74846
74870
74892
74917
74927
74962
74994
74996
75027
75046
75048
75042
75038
75023
75029
74967
