78328
78335
78339
78336
78353
78336
78346
78335
78355
78365
78351
78364
78370
78373
78393
78386
78397
78400
78421
78432
78433
78469
78465
78434
78384
78286
78208
78176
78147
78148
78141
78129
78140
78137
78157
78169
78205
78198
78216
78208
78194
78203
78196
78213
78192
78213
78211
78230
78236
78244
78248
78270
78246
78239
78285
78264
78277
78288
78277
78318
78317
78312
78303
78270
78172
78062
78003
77978
77953
77947
77938
77943
77968
77964
77987
78019
78022
78055
78018
78009
77999
78021
77997
78000
78002
78012
78027
78040
78050
78056
78086
78090
78074
78092
78084
78096
78129
78124
78149
78061
77979
77912
77878
77883
77864
77871
77900
77936
77934
77973
77981
78044
78028
78039
78034
78047
78023
78038
78040
78015
78053
78062
78048
78057
78070
78079
78073
78088
78072
78060
78053
78046
78031
77964
77860
77746
77691
77665
77650
77653
77617
77647
77657
77685
77684
77712
77719
77734
77719
77721
77726
77742
77750
77760
77751
77781
77791
77804
77804
77839
77814
77856
77856
77890
77889
77895
77912
77911
77919
77947
77949
77979
77948
77846
77747
77668
77642
77605
77618
77622
77620
77635
77632
77654
77672
77710
77720
77711
77726
77703
77709
77700
77723
77733
77734
77743
77750
77757
77764
77767
77772
77798
77794
77801
77807
77823
77806
77836
77846
77851
77786
77675
77589
77549
77550
77538
77550
77539
77543
77549
77585
77615
77624
77672
77653
77643
77636
77639
77662
77654
77649
77645
77688
77689
77713
77709
77712
77735
77732
77729
77748
77747
77769
77775
77785
77798
77733
77647
77551
77488
77478
77481
77506
77514
77532
77567
77559
77571
77610
77619
77637
77631
77628
77613
77624
77647
77638
77651
77667
77681
77698
77712
77709
77704
77720
77728
77745
77746
77765
77771
77804
77808
77818
77826
77741
77626
77548
77489
77493
77485
77472
77494
77511
77506
77516
77540
77553
77576
77601
77598
77580
77573
77598
77622
77595
77629
77629
77646
77653
77665
77660
77674
77703
77704
77720
77750
77768
77780
77802
77798
77818
77833
77858
77849
77865
77873
77879
77794
77688
77624
77535
77530
77521
77489
77520
77518
77520
77540
77532
77573
77584
77583
77597
77569
77594
77570
77567
77610
77600
77631
77630
77658
77660
77664
77668
77713
77698
77694
77713
77730
77731
77744
77782
77773
77783
77781
77792
77814
77834
77826
77741
77624
77540
77509
77518
77522
77508
77529
77548
77551
77586
77590
77626
77659
77638
77646
77638
77647
77634
77655
77687
77683
77693
77726
77740
77744
77751
77754
77751
77774
77787
77790
77802
77811
77826
77851
77844
77865
77824
77778
77669
77618
77566
77566
77568
77566
77566
77579
77574
77593
77612
77654
77668
77667
77660
77638
77648
77661
77668
77658
77671
77677
77678
77692
77677
77705
77695
77720
77713
77709
77739
77749
77759
77766
77786
77769
77680
77580
77508
77483
77457
77434
77423
77446
77412
77436
77445
77443
77487
77496
77460
77457
77453
77449
77436
77432
77432
77436
77452
77458
77451
77460
77458
77475
77483
77481
77500
77520
77520
77533
77542
77563
77557
77493
77385
77290
77253
77226
77232
77235
77235
77227
77250
77252
77264
77310
77333
77340
77347
77320
77339
77341
77342
77345
77355
77378
77394
77392
77402
77415
77431
77432
77443
77455
77460
77469
77478
77503
77498
77512
77428
77307
77245
77231
77233
77198
77224
77242
77252
77276
77299
77313
77346
77345
77373
77354
77360
77352
77345
77359
77380
77381
77393
77421
77412
77417
77415
77399
77422
77407
77403
77429
77441
77435
77454
77403
77295
77192
77147
77133
77134
77145
77142
77171
77181
77212
77226
77280
77305
77315
77331
77347
77332
77336
77352
77371
77376
77402
77426
77439
77469
77484
77497
77505
77507
77522
77549
77546
77554
77581
77593
77610
77592
77555
77430
77363
77306
77300
77295
77309
77297
77325
77334
77340
77348
77372
77393
77419
77409
77407
77399
77400
77409
77426
77440
77450
77459
77471
77496
77495
77507
77521
77525
77523
77558
77595
77574
77581
77623
77608
77616
77652
77662
77662
77680
77681
77690
77657
77575
77457
77397
77358
77369
77357
77381
77378
77384
77378
77421
77441
77467
77465
77487
77496
77493
77482
77485
77500
77479
77502
77534
77528
77561
77544
77569
77607
77601
77633
77617
77635
77644
77670
77683
77684
77707
77698
77716
77726
77757
77777
77789
77701
77598
77537
77502
77521
77515
77535
77545
77552
77584
77599
77641
77646
77677
77664
77664
77647
77686
77691
77669
77708
77729
77732
77746
77769
77756
77771
77796
77808
77809
77850
77841
77851
77881
77895
77904
77903
77954
77939
77879
77773
77705
77655
77632
77653
77651
77640
77670
77669
77667
77689
77737
77751
77757
77740
77747
77724
77738
77759
77775
77760
77765
77787
77801
77800
77801
77810
77847
77844
77859
77883
77908
77915
77920
77915
77928
77946
77930
77896
77789
77713
77657
77639
77619
77626
77598
77642
77638
77631
77656
77671
77695
77715
77730
77731
77699
77715
77717
77699
77715
77728
77736
77758
77744
77769
77791
77798
77809
77824
77793
77828
77823
77830
77857
77868
77880
77894
77901
77886
77842
77744
77640
77578
77564
77573
77557
77560
77576
77583
77612
77632
77637
77646
77668
77675
77678
77661
77655
77649
77659
77685
77665
77683
77693
77695
77713
77723
77748
77746
77761
77749
77795
77779
77800
77788
77835
77824
77755
77660
77568
77555
77556
77547
77542
77553
77565
77573
77598
77634
77663
77687
77680
77668
77643
77674
77680
77691
77700
77726
77727
77733
77739
77763
77762
77789
77793
77799
77808
77818
77824
77835
77850
77814
77731
77622
77569
77555
77548
77532
77558
77574
77542
77584
77584
77615
77627
77648
77648
77665
77654
77650
77663
77662
77669
77686
77700
77713
77707
77724
77754
77729
77759
77765
77775
77782
77797
77795
77829
77819
77819
77836
77775
77664
77584
77532
77496
77490
77484
77491
77490
77492
77501
77511
77542
77575
77585
77543
77582
77559
77557
77570
77587
77622
77613
77626
77651
77663
77684
77695
77680
77718
77724
77732
77739
77769
77742
77776
77766
77762
77780
77800
77808
77716
77608
77526
77473
77465
77461
77439
77463
77476
77471
77489
77509
77512
77557
77547
77536
77502
77525
77520
77533
77540
77530
77543
77558
77572
77574
77580
77594
77608
77616
77618
77628
77649
77677
77681
77667
77683
77705
77690
77626
77526
77448
77382
77378
77367
77365
77339
77357
77377
77371
77391
77422
77444
77465
77452
77419
77414
77412
77425
77454
77467
77479
77475
77511
77507
77518
77526
77536
77548
77567
77584
77587
77603
77611
77634
77634
77649
77643
77631
77647
77675
77652
77593
77484
77386
77339
77316
77304
77305
77293
77296
77332
77314
77332
77353
77383
77381
77409
77410
77372
77381
77376
77401
77380
77415
77420
77450
77451
77457
77478
77469
77512
77486
77509
77536
77539
77556
77556
77562
77566
77578
77591
77583
77602
77623
77569
77479
77375
77288
77237
77207
77218
77221
77251
77249
77264
77279
77308
77312
77358
77355
77364
77325
77346
77350
77361
77360
77378
77391
77404
77401
77397
77427
77434
77439
77445
77478
77476
77487
77495
77500
77532
77522
77508
77508
77430
77320
77236
77176
77164
77147
77173
77166
77164
77181
77177
77188
77218
77251
77245
77248
77210
77221
77210
77224
77212
77226
77241
77256
77261
77266
77266
77283
77295
77276
77298
77301
77309
77317
77334
77337
77341
77290
77148
77058
76997
76958
76940
76949
76930
76931
76950
76962
76965
76993
77008
77010
77011
76989
76982
76982
76969
76975
76981
76987
76977
76973
76987
76986
77007
76999
77020
77060
77057
77055
77078
77094
77096
77107
77135
77127
77143
77127
77024
76889
76786
76706
76699
76676
76666
76660
76685
76670
76686
76703
76711
76732
76707
76725
76715
76693
76695
76692
76683
76710
76705
76733
76723
76727
76714
76739
76749
76735
76752
76750
76773
76783
76777
76788
76790
76803
76800
76794
76708
76567
76454
76390
76380
76380
76394
76398
76420
76429
76429
76456
76492
76530
76524
76506
76493
76500
76498
76520
76536
76536
76546
76564
76576
76584
76600
76620
76638
76640
76653
76670
76694
76718
76721
76755
76736
76652
76532
76464
76399
76370
76371
76378
76388
76397
76426
76418
76463
76498
76520
76532
76526
76537
76527
76529
76555
76561
76599
76590
76611
76624
76648
76651
76670
76697
76714
76727
76764
76788
76800
76807
76838
76838
76867
76874
76881
76824
76682
76559
76540
76508
76483
76469
76486
76500
76509
76516
76541
76569
76609
76598
76628
76633
76632
76669
76666
76699
76718
76761
76820
76890
76931
76996
77064
77107
77156
77211
77317
77416
77508
77588
77643
77648
77656
77673
77686
77669
77658
77660
77626
77623
77580
77482
77377
77327
77278
77266
77274
77277
77292
77306
77318
77321
77375
77372
77420
77436
77418
77427
77422
77427
77441
77464
77442
77477
77495
77506
77518
77525
77534
77549
77569
77579
77569
77593
77624
77600
77635
77637
77657
77665
77604
77492
77437
77404
77394
77377
77374
77395
77382
77400
77405
77426
77432
77456
77472
77488
77480
77460
77463
77460
77496
77488
77497
77513
77517
77534
77521
77553
77565
77584
77608
77611
77630
77622
77648
77674
77671
77684
77721
77743
77692
77626
77550
77480
77444
77436
77434
77417
77424
77417
77433
77444
77461
77479
77495
77502
77525
77502
77490
77500
77505
77496
77498
77498
77501
77487
77486
77513
77513
77505
77500
77533
77551
77548
77527
77569
77580
77598
77600
77640
77664
77724
77743
77713
77612
77537
77498
77484
77482
77503
77542
77560
77559
77539
77399
77278
77216
77175
77156
77201
77200
77178
77212
77202
77250
77281
77322
77353
77350
77339
77365
77323
77213
77151
77154
77154
77164
77172
77184
77365
77669
77738
77554
77432
77237
77614
78009
78172
78091
78131
78126
78116
78063
78030
77986
77971
77896
77829
77792
77766
77784
77803
77842
77892
77897
77886
77783
77690
77607
77507
77362
77233
76950
76889
76797
76583
76427
76348
76155
76035
75917
75862
75853
75845
75834
75809
75819
75826
75822
75826
75860
75886
75900
75923
75916
75909
75909
75916
75941
75953
75969
75874
75866
75791
75783
75754
75553
75685
75783
75821
75890
75861
75861
75839
75849
75904
75910
75927
75960
76000
76013
76043
76069
76104
76129
76083
76104
76073
76074
76065
76094
76073
76103
76115
76110
76142
76167
76171
76174
76183
76188
76196
76187
76167
76171
76140
76125
76104
76095
76075
76080
76010
75901
75849
75830
75814
75837
75832
75865
75895
75882
75874
75890
75903
75918
75898
75908
75902
75872
75863
75850
75858
75830
75817
75818
75808
75804
75806
75803
75827
75849
75852
75883
75893
75905
75900
75917
75942
75922
75932
75903
75915
75847
75728
75620
75551
75530
75514
75510
75507
75514
75553
75556
75578
75617
75652
75662
75659
75668
75670
75670
75660
75685
75685
75711
75728
75735
75744
75760
75780
75795
75796
75806
75829
75843
75834
75861
75893
75888
75889
75904
75934
75914
75788
75685
75566
75533
75538
75532
75533
75543
75533
75536
75555
75593
75595
75643
75623
75632
75613
75613
75619
75610
75614
75637
75637
75630
75646
75639
75670
75654
75670
75682
75693
75703
75740
75754
75783
75792
75816
75813
75842
75857
75883
75904
75891
75906
75919
75872
75776
75646
75589
75544
75553
75542
75563
75561
75592
75605
75622
75627
75674
75686
75687
75699
75692
75678
75683
75664
75676
75691
75693
75705
75716
75723
75747
75760
75784
75789
75788
75820
75836
75865
75872
75874
75867
75880
75901
75913
75918
75926
75941
75999
75989
75913
75794
75715
75666
75643
75646
75630
75638
75660
75688
75746
75792
75850
75896
75913
75930
75927
75896
75930
75939
75912
75906
75917
75911
75902
75916
75924
75919
75940
75963
75992
75996
75983
76006
76016
76031
76031
76051
76051
76066
76094
76087
76121
76071
75966
75859
75783
75746
75732
75706
75730
75735
75730
75743
75750
75781
75830
75836
75852
75881
75873
75867
75878
75893
75910
75907
75903
75910
75935
75927
75948
75958
75955
75963
75985
76010
76006
76037
76031
76053
76052
76039
76061
76088
76076
75986
75881
75791
75729
75709
75676
75672
75650
75691
75681
75693
75713
75717
75746
75769
75761
75761
75775
75769
75784
75797
75823
75819
75841
75841
75844
75875
75867
75877
75890
75907
75909
75919
75932
75931
75947
75947
75950
75955
75978
75969
75882
75769
75694
75625
75614
75570
75563
75560
75569
75569
75567
75605
75628
75660
75658
75679
75651
75658
75659
75659
75674
75670
75688
75685
75692
75695
75698
75714
75709
75743
75783
75778
75791
75800
75809
75848
75827
75869
75816
75695
75600
75530
75486
75472
75451
75464
75474
75482
75480
75525
75549
75558
75597
75599
75621
75592
75581
75588
75609
75613
75620
75622
75649
75656
75678
75700
75701
75727
75739
75743
75762
75783
75799
75788
75806
75825
75838
75847
75795
75680
75557
75496
75442
75431
75428
75436
75443
75445
75470
75480
75515
75540
75553
75564
75566
75561
75566
75574
75580
75584
75582
75606
75611
75619
75632
75642
75656
75674
75718
75699
75712
75756
75743
75768
75776
75786
75806
75822
75822
75822
75831
75762
75642
75539
75495
75458
75445
75446
75456
75462
75463
75482
75505
75544
75551
75579
75578
75580
75571
75554
75556
75590
75582
75594
75607
75629
75637
75659
75681
75691
75697
75724
75757
75755
75772
75807
75803
75810
75829
75817
75854
75842
75761
75656
75545
75493
75455
75459
75472
75479
75494
75483
75502
75528
75554
75596
75619
75597
75603
75597
75615
75608
75626
75633
75645
75663
75657
75675
75695
75683
75709
75715
75743
75761
75774
75805
75806
75815
75847
75850
75876
75876
75890
75912
75920
75922
75932
75925
75851
75723
75626
75542
75541
75523
75509
75515
75506
75515
75528
75542
75579
75603
75617
75645
75632
75636
75653
75652
75661
75636
75674
75701
75674
75696
75716
75716
75743
75759
75776
75797
75808
75833
75853
75847
75891
75890
75906
75935
75936
75959
75972
75966
75970
75999
75999
76006
75975
75833
75724
75641
75615
75605
75584
75606
75618
75636
75652
75668
75699
75753
75784
75798
75782
75757
75778
75744
75742
75758
75775
75797
75779
75811
75825
75838
75835
75858
75893
75898
75915
75920
75931
75950
75954
75981
75995
76004
76043
76030
76058
75996
75878
75783
75714
75690
75669
75661
75669
75684
75677
75712
75736
75757
75781
75835
75836
75820
75829
75809
75805
75825
75854
75863
75858
75874
75908
75900
75909
75941
75957
75949
75986
76000
76016
76025
76030
76075
76079
76090
76098
76124
76156
76145
76166
76168
76159
76057
75934
75836
75811
75790
75787
75776
75787
75822
75822
75860
75863
75893
75932
75943
75970
75964
75970
75969
75965
75985
75994
76012
76011
76030
76059
76036
76079
76093
76111
76120
76151
76154
76176
76193
76221
76232
76254
76249
76275
76307
76299
76332
76339
76367
76361
76286
76188
76091
76041
76000
75987
75994
76011
76020
76055
76076
76086
76122
76146
76165
76177
76165
76148
76156
76167
76186
76205
76204
76197
76221
76222
76246
76244
76262
76262
76283
76297
76327
76327
76318
76345
76338
76384
76390
76391
76295
76186
76098
76058
76027
76017
76030
76034
76035
76048
76064
76094
76104
76139
76157
76151
76159
76155
76133
76165
76151
76175
76182
76175
76218
76225
76245
76265
76275
76291
76342
76345
76348
76381
76376
76383
76384
76400
76438
76457
76457
76401
76297
76175
76092
76041
76039
76032
76037
76042
76043
76066
76081
76104
76147
76185
76200
76199
76185
76198
76194
76185
76187
76202
76215
76226
76247
76241
76229
76250
76256
76251
76275
76287
76302
76304
76333
76361
76404
76421
76446
76450
76452
76492
76494
76512
76527
76520
76542
76505
76392
76247
76126
76067
76034
76047
76033
76068
76072
76098
76113
76151
76176
76223
76235
76238
76217
76219
76208
76214
76242
76249
76253
76270
76287
76308
76310
76324
76325
76339
76360
76391
76407
76423
76438
76453
76479
76503
76496
76507
76516
76543
76545
76553
76491
76361
76243
76170
76134
76106
76113
76115
76142
76145
76177
76180
76212
76229
76260
76279
76263
76260
76251
76242
76237
76252
76271
76283
76274
76291
76300
76316
76321
76327
76328
76338
76369
76365
76382
76388
76400
76418
76414
76430
76462
76460
76468
76404
76261
76157
76078
76046
76033
76032
76034
76049
76041
76062
76058
76067
76097
76124
76142
76128
76122
76128
76117
76126
76133
76159
76161
76198
76202
76220
76248
76264
76291
76327
76377
76373
76435
76485
76511
76570
76588
76647
76670
76679
76718
76730
76729
76727
76709
76694
76713
76557
76371
76200
76107
76076
76021
76017
75992
75987
75991
75998
75973
75996
76013
76041
76069
76050
76062
76034
76007
75999
75985
75998
75979
76013
76029
76029
76069
76069
76087
76091
76091
76117
76120
76124
76116
76126
76128
76130
76120
76114
76113
76135
76175
76225
76207
76140
75977
75825
75710
75635
75603
75545
75544
75516
75531
75503
75512
75485
75476
75440
75399
75342
75280
75189
74995
74765
74495
74289
73962
73284
72951
73317
73354
73508
73118
73077
73109
73173
73180
73199
73238
73289
73330
73428
73506
73543
73585
73723
73784
73703
73582
73505
73447
73478
73511
73525
73675
73728
73774
73801
73831
73862
73892
74054
74331
74664
75124
75407
75535
75600
75968
77357
77134
76831
76575
76433
76369
76167
75799
75518
75348
75765
75031
74629
74671
74514
74387
74236
74116
74086
74078
74163
74233
74388
74514
74593
74632
74654
74638
74573
74601
74546
74632
74687
74740
74725
74721
74694
74709
74722
74716
74689
74661
74658
74614
74531
74473
74437
74467
74469
74413
74364
74236
74172
74157
74108
74073
74029
73972
73962
73941
73948
74009
74025
74088
74122
74081
74095
74133
74150
74147
74117
74134
74137
74145
74174
74168
74162
74175
74172
74182
74192
74199
74200
74164
74185
74169
74132
74106
74094
74093
74067
74055
74052
74051
74039
74025
73935
73835
73748
73666
73646
73610
73572
73566
73590
73572
73603
73632
73676
73700
73724
73736
73726
73733
73739
73731
73747
73745
73742
73760
73766
73784
73802
73797
73821
73832
73840
73878
73909
73931
73938
73949
73964
73973
73996
73997
74023
74024
73960
73896
73790
73745
73678
73680
73679
73664
73678
73656
73695
73706
73723
73730
73739
73758
73744
73723
73721
73716
73701
73736
73707
73706
73721
73735
73735
73756
73762
73766
73755
73751
73764
73775
73770
73777
73776
73794
73788
73790
73784
73792
73804
73820
73805
73811
73806
73804
73799
73742
73627
73523
73460
73420
73395
73393
73398
73408
73405
73404
73408
73432
73436
73432
73430
73438
73418
73395
73359
73370
73366
73385
73385
73384
73433
73429
73441
73462
73457
73474
73466
73502
73497
73534
73548
73534
73572
73569
73607
73618
73636
73645
73660
73677
73681
73712
73689
73705
73650
73569
73463
73398
73378
73362
73366
73359
73364
73388
73379
73381
73426
73474
73490
73506
73510
73525
73561
73603
73659
73719
73781
73851
73874
73927
73964
73998
74016
74048
74069
74096
74101
74130
74152
74179
74170
74212
74207
74217
74208
74251
74241
74239
74146
74063
73976
73943
73921
73931
73921
73938
73945
73967
73964
73974
73997
74020
74045
74027
74034
74059
74050
74052
74065
74052
74071
74078
74109
