80323
80254
80287
80279
80319
80333
80316
80241
80178
80161
80138
80129
80133
80129
80129
80163
80150
80181
80196
80212
80222
80230
80207
80197
80175
80194
80206
80190
80198
80186
80196
80180
80200
80198
80214
80220
80212
80235
80236
80244
80229
80243
80247
80224
80195
80114
80062
80022
80006
79985
79975
79971
79964
79942
79941
79939
79976
79987
80012
80035
80017
80053
80073
53382
53217
53008
52969
53050
53083
53098
53104
53102
53131
53133
53106
53088
53057
53036
53035
53020
52998
52971
52999
53068
53164
53265
53290
53316
53301
53290
53275
53298
53285
53259
53218
80186
80196
80197
80214
80204
80208
80210
80234
80230
80261
80229
80252
80279
80272
80308
80312
80309
80329
52937
52909
52885
52846
52839
52924
53018
53111
53159
53158
53163
53158
53152
53142
53109
53075
53068
53023
53014
52976
52989
52942
52884
52820
52725
52624
52515
52523
52492
52445
52386
52331
80243
80256
80258
80256
80242
80243
80249
80224
80164
80115
80114
80098
80108
80089
80099
80088
80062
52132
52054
52043
51993
51979
51964
51968
51959
51954
51958
51972
51967
51986
52002
52026
52066
52104
52160
52289
52501
52591
52720
52857
52958
53048
53056
53059
52980
52912
52803
52628
52434
79887
79902
79872
79830
79776
79687
79613
79553
79485
79412
79343
79328
79303
79262
79209
79154
79168
79221
79277
79349
79386
79434
79478
79475
79467
79401
79370
79348
79384
79459
79543
79586
79643
79712
79820
79889
79948
80009
80008
80011
80052
80047
80062
80100
80088
80040
80028
79957
79937
79947
79949
79953
79922
79858
79757
79734
79727
79734
79740
79758
79770
79746
79743
79752
79766
79755
79763
79782
79799
79802
79805
79744
79715
79672
79632
79602
79608
79651
79643
79687
79697
79741
79770
79776
79758
79700
79694
79630
79595
79586
79595
79591
79605
79614
79631
79618
79593
79568
79569
79589
79557
79535
79475
79417
79378
79315
79301
79274
79313
79322
79260
79179
79098
79004
79001
78978
78977
78984
78978
79007
79046
79109
79128
79185
79246
79323
79408
79497
79561
79633
79716
79762
79788
79812
79868
79888
79942
79882
79789
79701
79626
79603
79613
79629
79623
79635
79654
79657
79668
79669
79666
79702
79692
79662
79669
79670
79692
79681
79707
79695
79693
79730
79746
79750
79788
79811
79834
79843
79901
79858
79799
79734
79684
79659
79672
79707
79705
79750
79759
79782
79806
79777
79765
79767
79759
79750
79760
79782
79785
79775
79801
79816
79811
79813
79777
79749
79723
79685
79616
79513
79405
79309
79278
79307
79362
79426
79536
79652
79762
79755
79837
79859
79902
79860
79819
79875
79942
79890
79784
79756
79700
79674
79669
79722
79732
79734
79699
79638
79594
79571
79532
79559
79615
79685
79735
79819
79862
79806
79823
79832
79808
79841
79920
79971
80004
80047
80041
80005
79967
79940
79982
79944
79892
79874
79805
79619
79595
79609
79664
79787
79890
80016
80031
80028
79992
79979
79987
79972
79949
79983
79976
79999
79924
79806
79665
79539
79562
79638
79833
79955
80119
80190
80204
80144
80075
79972
79935
79889
79911
79934
79949
79900
79877
79851
79787
79741
79655
79654
79721
79773
79822
79878
79882
79896
79886
79876
79821
79654
79526
79457
79430
79458
79474
79476
79497
79524
79575
79594
79641
79651
79647
79629
79609
79600
79588
79593
79556
79564
79592
79624
79631
79643
79603
79593
79587
79564
79521
79487
79420
79381
79366
79345
79342
79295
79270
79285
79310
79394
79496
79568
79656
79672
79704
79674
79638
79539
79405
79325
79270
79244
79241
79266
79331
79405
79450
79507
79597
79654
79649
79643
79581
79537
79470
79424
79413
79397
79426
79429
79477
79546
79629
79667
79599
79490
79408
79340
79311
79296
79281
79318
79346
79371
79452
79482
79540
79586
79640
79688
79719
79714
79687
79669
79644
79619
79629
79589
79521
79463
79474
79476
79485
79483
79502
79474
79429
79400
79372
79344
79281
79228
79153
79113
79118
79122
79187
79191
79241
79248
79319
79389
79283
79224
79192
79197
79209
79238
79278
79301
79334
79376
79429
79490
79555
79634
79648
79609
79584
79528
79479
79486
79475
79485
79506
79514
79605
79663
79687
79601
79558
79494
79477
79444
79469
79496
79519
79494
79518
79531
79580
79574
79649
79677
79740
79761
79753
79719
79676
79661
79650
79590
79493
79403
79334
79292
79307
79299
79295
79319
79338
79363
79423
79416
79428
79434
79445
79431
79421
79394
79403
79394
79365
79377
79390
79453
79512
79537
79550
79483
79398
79333
79335
79336
79351
79357
79401
79429
79441
79374
79317
79258
79186
79147
79250
79274
79248
79222
79237
79241
79224
79198
79159
79116
79021
78957
78919
78923
78936
78953
78964
78984
79006
79033
79073
79100
79122
79113
79114
79129
79138
79174
79183
79183
79164
79185
79197
79230
79195
79103
79025
78994
78945
78935
78903
78914
78913
78942
78954
78930
78859
78834
78811
78812
78770
78783
78776
78798
78824
78890
79039
79360
79550
79553
79534
79438
79356
79287
79296
79266
79219
79116
78968
78765
78672
78526
78350
78483
78508
78476
78444
78381
78333
78363
78356
78315
78314
78333
78461
78546
78559
78533
78546
78589
78744
78970
79083
79167
79119
79145
79129
78794
79065
78825
78781
78758
78984
78991
79080
79133
79168
79196
79233
79278
79300
79258
79151
79094
78950
78909
78888
78874
78860
78946
79079
79076
76534
74582
73398
74037
76617
75779
78361
78097
77956
78652
79292
79090
79141
78570
78495
75347
74242
77765
77931
77911
77757
77790
77766
77704
77668
77621
77593
77549
77578
77608
77649
77668
77295
77247
77405
77604
77793
77848
77817
77785
77700
77619
77560
77441
77295
77212
77086
77066
77052
76923
76897
76938
76923
76954
77020
77101
77111
77152
77197
77245
77287
77332
77336
77287
77299
77327
77410
77446
77497
77565
77606
77706
77713
77778
77895
77915
77935
77971
78067
78077
78133
78175
78203
78245
78282
78293
78270
78212
78120
78057
78000
77967
78026
78094
78076
78094
78156
78182
78213
78212
78221
78204
78222
78235
78244
78230
78216
78196
78202
78217
78169
78014
77811
77610
77459
77423
77419
77477
77456
77466
77498
77523
77581
77639
77702
77741
77740
77761
77775
77834
77678
77647
77630
77625
77661
77784
77863
77801
77763
77713
77706
77754
77795
77841
77892
77928
77984
78022
78085
78121
78183
78200
78238
78252
78251
78119
78014
77841
77691
77751
77911
77803
77560
77371
77069
76944
76806
76829
76847
76996
77171
77360
77550
77804
77955
78085
78115
77971
77931
77900
77857
77772
77741
77778
77798
77837
77912
78015
78039
77954
77901
77861
77846
77721
77609
77664
77927
78278
78539
78721
78814
78806
78795
78830
78900
78919
78985
78966
79000
79002
79040
79104
79140
79157
79188
79199
79203
79235
79287
79286
79341
79376
79466
79583
79700
79724
79631
79481
79401
79408
79419
79416
79423
79433
79469
79486
79470
79456
79448
79467
79473
79477
79453
79408
79400
79404
79377
79389
79355
79334
79319
79332
79288
79286
79285
79267
79298
79312
79308
79288
79222
79127
79062
79012
78983
78973
78951
78952
78977
78958
78993
79013
79037
79047
79019
79016
79023
79045
79044
79045
79053
79049
79039
79056
79055
79072
79069
79078
79079
79080
79082
79064
78991
78903
78855
78839
78843
78815
78845
78865
78854
78867
78878
78909
78901
78922
78919
78930
78936
78942
78925
78959
78958
78977
78994
78988
78986
78983
79003
79001
79002
79001
79014
78957
78888
78802
78767
78770
78763
78780
78775
78808
78807
78822
78837
78836
78848
78850
78865
78867
78858
78857
78869
78870
78879
78883
78892
78909
78922
78915
78951
78961
78941
78958
78947
78958
78972
78956
78975
78948
78931
78809
78729
78699
78671
78674
78693
78674
78691
78690
78677
78682
78700
78693
78683
78679
78681
78668
78689
78663
78651
78688
78689
78712
78699
78693
78730
78705
78709
78721
78740
78700
78724
78743
78732
78733
78693
78630
78545
78469
78442
78451
78437
78444
78444
78455
78467
78502
78518
78535
78562
78535
78547
78533
78548
78553
78579
78568
78600
78614
78613
78614
78631
78642
78642
78634
78656
78672
78665
78680
78671
78680
78656
78598
78491
78435
78430
78417
78411
78430
78457
78479
78479
78499
78539
78549
78572
78575
78542
78557
78550
78559
78568
78562
78575
78577
78582
78589
78611
78635
78623
78611
78626
78622
78637
78674
78659
78583
78497
78422
78396
78375
78387
78385
78408
78396
78423
78431
78461
78475
78492
78499
78501
78478
78493
78494
78510
78531
78527
78522
78531
78543
78544
78535
78558
78549
78554
78583
78574
78566
78502
78419
78336
78292
78282
78268
78298
78272
78265
78292
78293
78328
78335
78339
78336
78353
78336
78346
78335
78355
78365
78351
78364
78370
78373
78393
78386
78397
78400
78421
78432
78433
78469
78465
78434
78384
78286
78208
78176
78147
78148
78141
78129
78140
78137
78157
78169
78205
78198
78216
78208
78194
78203
78196
78213
78192
78213
78211
78230
78236
78244
78248
78270
78246
78239
78285
78264
78277
78288
78277
78318
78317
78312
78303
78270
78172
78062
78003
77978
77953
77947
77938
77943
77968
77964
77987
78019
78022
78055
78018
78009
77999
78021
77997
78000
78002
78012
78027
78040
78050
78056
78086
78090
78074
78092
78084
78096
78129
78124
78149
78061
77979
77912
77878
77883
77864
77871
77900
77936
77934
77973
77981
78044
78028
78039
78034
78047
78023
78038
78040
78015
78053
78062
78048
78057
78070
78079
78073
78088
78072
78060
78053
78046
78031
77964
77860
77746
77691
77665
77650
77653
77617
77647
77657
77685
77684
77712
77719
77734
77719
77721
77726
77742
77750
77760
77751
77781
77791
77804
77804
77839
77814
77856
77856
77890
77889
77895
77912
77911
77919
77947
77949
77979
77948
77846
77747
77668
77642
77605
77618
77622
77620
77635
77632
77654
77672
77710
77720
77711
77726
77703
77709
77700
77723
77733
77734
77743
77750
77757
77764
77767
77772
77798
77794
77801
77807
77823
77806
77836
77846
77851
77786
77675
77589
77549
77550
77538
77550
77539
77543
77549
77585
77615
77624
77672
77653
77643
77636
77639
77662
77654
77649
77645
77688
77689
77713
77709
77712
77735
77732
77729
77748
77747
77769
77775
77785
77798
77733
77647
77551
77488
77478
77481
77506
77514
77532
77567
77559
77571
77610
77619
77637
77631
77628
77613
77624
77647
77638
77651
77667
77681
77698
77712
77709
77704
77720
77728
77745
77746
77765
77771
77804
77808
77818
77826
77741
77626
77548
77489
77493
77485
77472
77494
77511
77506
77516
77540
77553
77576
77601
77598
77580
77573
77598
77622
77595
77629
77629
77646
77653
77665
77660
77674
77703
77704
77720
77750
77768
77780
77802
77798
77818
77833
77858
77849
77865
77873
77879
77794
77688
77624
77535
77530
77521
77489
77520
77518
77520
77540
77532
77573
77584
77583
77597
77569
77594
77570
77567
77610
77600
77631
77630
77658
77660
77664
77668
77713
77698
77694
77713
77730
77731
77744
77782
77773
77783
77781
77792
77814
77834
77826
77741
77624
77540
77509
77518
77522
77508
77529
77548
77551
77586
77590
77626
77659
77638
77646
77638
77647
77634
77655
77687
77683
77693
77726
77740
77744
77751
77754
77751
77774
77787
77790
77802
77811
77826
77851
77844
77865
77824
77778
77669
77618
77566
77566
77568
77566
77566
77579
77574
77593
77612
77654
77668
77667
77660
77638
77648
77661
77668
77658
77671
77677
77678
77692
77677
77705
77695
77720
77713
77709
77739
77749
77759
77766
77786
77769
77680
77580
77508
77483
77457
77434
77423
77446
77412
77436
77445
77443
77487
77496
77460
77457
77453
77449
77436
77432
77432
77436
77452
77458
77451
77460
77458
77475
77483
77481
77500
77520
77520
77533
77542
77563
77557
77493
77385
77290
77253
77226
77232
77235
77235
77227
77250
77252
77264
77310
77333
77340
77347
77320
77339
77341
77342
77345
77355
77378
77394
77392
77402
77415
77431
77432
77443
77455
77460
77469
77478
77503
77498
77512
77428
77307
77245
77231
77233
77198
77224
77242
77252
77276
77299
77313
77346
77345
77373
77354
77360
77352
77345
77359
77380
77381
77393
77421
77412
77417
77415
77399
77422
77407
77403
77429
77441
77435
77454
77403
77295
77192
77147
77133
77134
77145
77142
77171
77181
77212
77226
77280
77305
77315
77331
77347
77332
77336
77352
77371
77376
77402
77426
77439
77469
77484
77497
77505
77507
77522
77549
77546
77554
77581
77593
77610
77592
77555
77430
77363
77306
77300
77295
77309
77297
77325
77334
77340
77348
77372
77393
77419
77409
77407
77399
77400
77409
77426
77440
77450
77459
77471
77496
77495
77507
77521
77525
77523
77558
77595
77574
77581
77623
77608
77616
77652
77662
77662
77680
77681
77690
77657
77575
77457
77397
77358
77369
77357
77381
77378
77384
77378
77421
77441
77467
77465
77487
77496
77493
77482
77485
77500
77479
77502
77534
77528
77561
77544
77569
77607
77601
77633
77617
77635
77644
77670
77683
77684
77707
77698
77716
77726
77757
77777
77789
77701
77598
77537
77502
77521
77515
77535
77545
77552
77584
77599
77641
77646
77677
77664
77664
77647
77686
77691
77669
77708
77729
77732
77746
77769
77756
77771
77796
77808
77809
77850
77841
77851
77881
77895
77904
77903
77954
77939
77879
77773
77705
77655
77632
77653
77651
77640
77670
77669
77667
77689
77737
77751
77757
77740
77747
77724
77738
77759
77775
77760
77765
77787
77801
77800
77801
77810
77847
77844
77859
77883
77908
77915
77920
77915
77928
77946
77930
77896
77789
77713
77657
77639
77619
77626
77598
77642
77638
77631
77656
77671
77695
77715
77730
77731
77699
77715
77717
77699
77715
77728
77736
77758
77744
77769
77791
77798
77809
77824
77793
77828
77823
77830
77857
77868
77880
77894
77901
77886
77842
77744
77640
77578
77564
77573
77557
77560
77576
77583
77612
77632
77637
77646
77668
77675
77678
77661
77655
77649
77659
77685
77665
77683
77693
77695
77713
77723
77748
77746
77761
77749
77795
77779
77800
77788
77835
77824
77755
77660
77568
77555
77556
77547
77542
77553
77565
77573
77598
77634
77663
77687
77680
77668
77643
77674
77680
77691
77700
77726
77727
77733
77739
77763
77762
77789
77793
77799
77808
77818
77824
77835
77850
77814
77731
77622
77569
77555
77548
77532
77558
77574
77542
77584
77584
77615
77627
77648
77648
77665
77654
77650
77663
77662
77669
77686
77700
77713
77707
77724
77754
77729
77759
77765
77775
77782
77797
77795
77829
77819
77819
77836
77775
77664
77584
77532
77496
77490
77484
77491
77490
77492
77501
77511
77542
77575
77585
77543
77582
77559
77557
77570
77587
77622
77613
77626
77651
77663
77684
77695
77680
77718
77724
77732
77739
77769
77742
77776
77766
77762
77780
77800
77808
77716
77608
77526
77473
77465
77461
77439
77463
77476
77471
77489
77509
77512
77557
77547
77536
77502
77525
77520
77533
77540
77530
77543
77558
77572
77574
77580
77594
77608
77616
77618
77628
77649
77677
77681
77667
77683
77705
77690
77626
77526
77448
77382
77378
77367
77365
77339
77357
77377
77371
77391
77422
77444
77465
77452
77419
77414
77412
77425
77454
77467
77479
77475
77511
77507
77518
77526
77536
77548
77567
77584
77587
77603
77611
77634
77634
77649
77643
77631
77647
77675
77652
77593
77484
77386
77339
77316
77304
77305
77293
77296
77332
77314
77332
77353
77383
77381
77409
77410
77372
77381
77376
77401
77380
77415
77420
77450
77451
77457
77478
77469
77512
77486
77509
77536
77539
77556
77556
77562
77566
77578
77591
77583
77602
77623
77569
77479
77375
77288
77237
77207
77218
77221
77251
77249
77264
77279
77308
77312
77358
77355
77364
77325
77346
77350
77361
77360
77378
77391
77404
77401
77397
77427
77434
77439
77445
77478
77476
77487
77495
77500
77532
77522
77508
77508
77430
77320
77236
77176
77164
77147
77173
77166
77164
77181
77177
77188
77218
77251
77245
77248
77210
77221
77210
77224
77212
77226
77241
77256
77261
77266
77266
77283
77295
77276
77298
77301
77309
77317
77334
77337
77341
77290
77148
77058
76997
76958
76940
76949
76930
76931
76950
76962
76965
76993
77008
77010
77011
76989
76982
76982
76969
76975
76981
76987
76977
76973
76987
76986
77007
76999
77020
77060
77057
77055
77078
77094
77096
77107
77135
77127
77143
77127
77024
76889
76786
76706
76699
76676
76666
76660
76685
76670
76686
76703
76711
76732
76707
76725
76715
76693
76695
76692
76683
76710
76705
76733
76723
76727
76714
76739
76749
76735
76752
76750
76773
76783
76777
76788
76790
76803
76800
76794
76708
76567
76454
76390
76380
76380
76394
76398
76420
76429
76429
76456
76492
76530
76524
76506
76493
76500
76498
76520
76536
76536
76546
76564
76576
76584
76600
76620
76638
76640
76653
76670
76694
76718
76721
76755
76736
76652
76532
76464
76399
76370
76371
76378
76388
76397
76426
76418
76463
76498
76520
76532
76526
76537
76527
76529
76555
76561
76599
76590
76611
76624
76648
76651
76670
76697
76714
76727
76764
76788
76800
76807
76838
76838
76867
76874
76881
76824
76682
76559
76540
76508
76483
76469
76486
76500
76509
76516
76541
76569
76609
76598
76628
76633
76632
76669
76666
76699
76718
76761
76820
76890
76931
76996
77064
77107
77156
77211
77317
77416
77508
77588
77643
77648
77656
77673
77686
77669
77658
77660
77626
77623
77580
77482
77377
77327
77278
77266
77274
77277
77292
77306
77318
77321
77375
77372
77420
77436
77418
77427
77422
77427
77441
77464
77442
77477
77495
77506
77518
77525
77534
77549
77569
77579
77569
77593
77624
77600
77635
77637
77657
77665
77604
77492
77437
77404
77394
77377
77374
77395
77382
77400
77405
77426
77432
77456
77472
77488
77480
77460
77463
77460
77496
77488
77497
77513
77517
77534
77521
77553
77565
77584
77608
77611
77630
77622
77648
77674
77671
77684
77721
77743
77692
77626
77550
77480
77444
77436
77434
77417
77424
77417
77433
77444
77461
77479
77495
77502
77525
77502
77490
77500
77505
77496
77498
77498
77501
77487
77486
77513
77513
77505
77500
77533
77551
77548
77527
77569
77580
77598
77600
77640
77664
77724
77743
77713
77612
77537
77498
77484
77482
77503
77542
77560
77559
77539
77399
77278
77216
77175
77156
77201
77200
77178
77212
77202
77250
77281
77322
77353
77350
77339
77365
77323
77213
77151
77154
77154
77164
77172
77184
77365
77669
77738
77554
77432
77237
77614
78009
78172
78091
78131
78126
78116
78063
78030
77986
77971
77896
77829
77792
77766
77784
77803
77842
77892
77897
77886
77783
77690
77607
77507
77362
77233
76950
76889
76797
76583
76427
76348
76155
76035
75917
75862
75853
75845
75834
75809
75819
75826
75822
75826
75860
75886
75900
75923
75916
75909
75909
75916
75941
75953
75969
75874
75866
75791
75783
75754
75553
75685
75783
75821
75890
75861
75861
75839
75849
75904
75910
75927
75960
76000
76013
76043
76069
76104
76129
76083
76104
76073
76074
76065
76094
76073
76103
76115
76110
76142
76167
76171
76174
76183
76188
76196
76187
76167
76171
76140
76125
76104
76095
76075
76080
76010
75901
75849
75830
75814
75837
75832
75865
75895
75882
75874
75890
75903
75918
75898
75908
75902
75872
75863
75850
75858
75830
75817
75818
75808
75804
75806
75803
75827
75849
75852
75883
75893
75905
75900
75917
75942
75922
75932
75903
75915
75847
75728
75620
75551
75530
75514
75510
75507
75514
75553
75556
75578
75617
75652
75662
75659
75668
75670
75670
75660
75685
75685
75711
75728
75735
75744
75760
75780
75795
75796
75806
75829
75843
75834
75861
75893
75888
75889
75904
75934
75914
75788
75685
75566
75533
75538
75532
75533
75543
75533
75536
75555
75593
75595
75643
75623
75632
75613
75613
75619
75610
75614
75637
75637
75630
75646
75639
75670
75654
75670
75682
75693
75703
75740
75754
75783
75792
75816
75813
75842
75857
75883
75904
75891
75906
75919
75872
75776
75646
75589
75544
75553
75542
75563
75561
75592
75605
75622
75627
75674
75686
75687
75699
75692
75678
75683
75664
75676
75691
75693
75705
75716
75723
75747
75760
75784
75789
75788
75820
75836
75865
75872
75874
75867
75880
75901
75913
75918
75926
75941
75999
75989
75913
75794
75715
75666
75643
75646
75630
75638
75660
75688
75746
75792
75850
75896
75913
75930
75927
75896
75930
75939
75912
75906
75917
75911
75902
75916
75924
75919
75940
75963
75992
75996
75983
76006
76016
76031
76031
76051
76051
76066
76094
76087
76121
76071
75966
75859
75783
75746
75732
75706
75730
75735
75730
75743
75750
75781
75830
75836
75852
75881
75873
75867
75878
75893
75910
75907
75903
75910
75935
75927
75948
75958
75955
75963
75985
76010
76006
76037
76031
76053
76052
76039
76061
76088
76076
75986
75881
75791
75729
75709
75676
75672
75650
75691
75681
75693
75713
75717
75746
75769
75761
75761
75775
75769
75784
75797
75823
75819
75841
75841
75844
75875
75867
75877
75890
75907
75909
75919
75932
75931
75947
75947
75950
75955
75978
75969
75882
75769
75694
75625
75614
75570
75563
75560
75569
75569
75567
75605
75628
75660
75658
75679
75651
75658
75659
75659
75674
75670
75688
75685
75692
75695
75698
75714
75709
75743
75783
75778
75791
75800
75809
75848
75827
75869
75816
75695
75600
75530
75486
75472
75451
75464
75474
75482
75480
75525
75549
75558
75597
75599
75621
75592
75581
75588
75609
75613
75620
75622
75649
75656
75678
75700
75701
75727
75739
75743
75762
75783
75799
75788
75806
75825
75838
75847
75795
75680
75557
75496
75442
75431
75428
75436
75443
75445
75470
75480
75515
75540
75553
75564
75566
75561
75566
75574
75580
75584
75582
75606
75611
75619
75632
75642
75656
75674
75718
75699
75712
75756
75743
75768
75776
75786
75806
75822
75822
75822
75831
75762
75642
75539
75495
75458
75445
75446
75456
75462
75463
75482
75505
75544
75551
75579
75578
75580
75571
75554
75556
75590
75582
75594
75607
75629
75637
75659
75681
75691
75697
75724
75757
75755
75772
75807
75803
75810
75829
75817
75854
75842
75761
75656
75545
75493
75455
75459
75472
75479
75494
75483
75502
75528
75554
75596
75619
75597
75603
75597
75615
75608
75626
75633
75645
75663
75657
75675
75695
75683
75709
75715
75743
75761
75774
75805
75806
75815
75847
75850
75876
75876
75890
75912
75920
75922
75932
75925
75851
75723
75626
75542
75541
75523
75509
75515
75506
75515
75528
75542
75579
75603
75617
75645
75632
75636
75653
75652
75661
75636
75674
75701
75674
75696
75716
75716
75743
75759
75776
75797
75808
75833
75853
75847
75891
75890
75906
75935
75936
75959
75972
75966
75970
75999
75999
76006
75975
75833
75724
75641
75615
75605
75584
75606
75618
75636
75652
75668
75699
75753
75784
75798
75782
75757
75778
75744
75742
75758
75775
75797
75779
75811
75825
75838
75835
75858
75893
75898
75915
75920
75931
75950
75954
75981
75995
76004
76043
76030
76058
75996
75878
75783
75714
75690
75669
75661
75669
75684
75677
75712
75736
75757
75781
75835
75836
75820
75829
75809
75805
75825
75854
75863
75858
75874
75908
75900
75909
75941
75957
75949
75986
76000
76016
76025
76030
76075
76079
76090
76098
76124
76156
76145
76166
76168
76159
76057
75934
75836
75811
75790
75787
75776
75787
75822
75822
75860
75863
75893
75932
75943
75970
75964
75970
75969
75965
75985
75994
76012
76011
76030
76059
76036
76079
76093
76111
76120
76151
76154
76176
76193
76221
76232
76254
76249
76275
76307
76299
76332
76339
76367
76361
76286
76188
76091
76041
76000
75987
75994
76011
76020
76055
76076
76086
76122
76146
76165
76177
76165
76148
76156
76167
76186
76205
76204
76197
76221
76222
76246
76244
76262
76262
76283
76297
76327
76327
76318
76345
76338
76384
76390
76391
76295
76186
76098
76058
76027
76017
76030
76034
76035
76048
76064
76094
76104
76139
76157
76151
76159
76155
76133
76165
76151
76175
76182
76175
76218
76225
76245
76265
76275
76291
76342
76345
76348
76381
76376
76383
76384
76400
76438
76457
76457
76401
76297
76175
76092
76041
76039
76032
76037
76042
76043
76066
76081
76104
76147
76185
76200
76199
76185
76198
76194
76185
76187
76202
76215
76226
76247
76241
76229
76250
76256
76251
76275
76287
76302
76304
76333
76361
76404
76421
76446
76450
76452
76492
76494
76512
76527
76520
76542
76505
76392
76247
76126
76067
76034
76047
76033
76068
76072
76098
76113
76151
76176
76223
76235
76238
76217
76219
76208
76214
76242
76249
76253
76270
76287
76308
76310
76324
76325
76339
76360
76391
76407
76423
76438
76453
76479
76503
76496
76507
76516
76543
76545
76553
76491
76361
76243
76170
76134
76106
76113
76115
76142
76145
76177
76180
76212
76229
76260
76279
76263
76260
76251
76242
76237
76252
76271
76283
76274
76291
76300
76316
76321
76327
76328
76338
76369
76365
76382
76388
76400
76418
76414
76430
76462
76460
76468
76404
76261
76157
76078
76046
76033
76032
76034
76049
76041
76062
76058
76067
76097
76124
76142
76128
76122
76128
76117
76126
76133
76159
76161
76198
76202
76220
76248
76264
76291
76327
76377
76373
76435
76485
76511
76570
76588
76647
76670
76679
76718
76730
76729
76727
76709
76694
76713
76557
76371
76200
76107
76076
76021
76017
75992
75987
75991
75998
75973
75996
76013
76041
76069
76050
76062
76034
76007
75999
75985
75998
75979
76013
76029
76029
76069
76069
76087
76091
76091
76117
76120
76124
76116
76126
76128
76130
76120
76114
76113
76135
76175
76225
76207
76140
75977
75825
75710
75635
75603
75545
75544
75516
75531
75503
75512
75485
75476
75440
75399
75342
75280
75189
74995
74765
74495
74289
73962
73284
72951
73317
73354
73508
73118
73077
73109
73173
73180
73199
73238
73289
73330
73428
73506
73543
73585
73723
73784
73703
73582
73505
73447
73478
73511
73525
73675
73728
73774
73801
73831
73862
73892
74054
74331
74664
75124
75407
75535
75600
75968
77357
77134
76831
76575
76433
76369
76167
75799
75518
75348
75765
75031
74629
74671
74514
74387
74236
74116
74086
74078
74163
74233
74388
74514
74593
74632
74654
74638
74573
74601
74546
74632
74687
74740
74725
74721
74694
74709
74722
74716
74689
74661
74658
74614
74531
74473
74437
74467
74469
74413
74364
74236
74172
74157
74108
74073
74029
73972
73962
73941
73948
74009
74025
74088
74122
74081
74095
74133
74150
74147
74117
74134
74137
74145
74174
74168
74162
74175
74172
74182
74192
74199
74200
74164
74185
74169
74132
74106
74094
74093
74067
74055
74052
74051
74039
74025
73935
73835
73748
73666
73646
73610
73572
73566
73590
73572
73603
73632
73676
73700
73724
73736
73726
73733
73739
73731
73747
73745
73742
73760
73766
73784
73802
73797
73821
73832
73840
73878
73909
73931
73938
73949
73964
73973
73996
73997
74023
74024
73960
73896
73790
73745
73678
73680
73679
73664
73678
73656
73695
73706
73723
73730
73739
73758
73744
73723
73721
73716
73701
73736
73707
73706
73721
73735
73735
73756
73762
73766
73755
73751
73764
73775
73770
73777
73776
73794
73788
73790
73784
73792
73804
73820
73805
73811
73806
73804
73799
73742
73627
73523
73460
73420
73395
73393
73398
73408
73405
73404
73408
73432
73436
73432
73430
73438
73418
73395
73359
73370
73366
73385
73385
73384
73433
73429
73441
73462
73457
73474
73466
73502
73497
73534
73548
73534
73572
73569
73607
73618
73636
73645
73660
73677
73681
73712
73689
73705
73650
73569
73463
73398
73378
73362
73366
73359
73364
73388
73379
73381
73426
73474
73490
73506
73510
73525
73561
73603
73659
73719
73781
73851
73874
73927
73964
73998
74016
74048
74069
74096
74101
74130
74152
74179
74170
74212
74207
74217
74208
74251
74241
74239
74146
74063
73976
73943
73921
73931
73921
73938
73945
73967
73964
73974
73997
74020
74045
74027
74034
74059
74050
74052
74065
74052
74071
74078
74109
74094
74109
74105
74124
74140
74152
74152
74186
74203
74207
74217
74234
74244
74264
74280
74282
74290
74310
74319
74291
74177
74092
74006
73986
73964
73955
73955
73960
73964
73979
73980
74010
74027
74049
74067
74085
74086
74088
74072
74076
74081
74104
74116
74123
74116
74132
74147
74163
74180
74162
74175
74199
74212
74230
74244
74256
74281
74286
74316
74320
74343
74336
74370
74389
74351
74302
74193
74091
74042
74039
74009
74012
74030
74054
74064
74072
74100
74133
74160
74163
74192
74179
74168
74158
74150
74162
74177
74155
74169
74164
74191
74195
74187
74206
74227
74226
74248
74251
74257
74290
74289
74338
74365
74385
74397
74424
74346
74227
74251
74240
74227
74227
74138
74003
73898
73768
73653
73587
73534
73491
73462
73450
73426
73463
73482
73492
73517
73505
73532
73552
73560
73584
73582
73594
73555
73534
73499
73525
73520
73563
73580
73645
73657
73628
73558
73409
73290
73183
73157
73221
73215
73274
73308
73381
73441
73484
73531
73585
73641
73682
73741
73774
73832
73818
73914
74340
74680
74920
75092
75141
75311
75618
75858
76082
75994
76058
76182
75728
75093
74877
75054
75302
75282
74898
74524
74050
74835
74160
74458
74964
75968
75806
75498
75309
75214
74691
74226
74084
74215
74486
74779
74968
75032
75155
75255
75321
75314
75334
75310
75302
75261
75304
75420
75584
75737
75832
75892
75952
76007
76048
76104
76117
76113
76118
76091
76079
76096
76123
76195
76224
76245
76198
76156
76099
76096
75980
75876
75563
75010
73338
73255
72698
73143
74754
73972
73619
74221
77453
76807
76780
76594
77549
77430
77456
77635
77622
77471
77052
74627
75860
76013
72103
72355
72292
72191
72139
72262
72264
72213
72356
72459
72527
72611
72663
72708
72777
72865
72960
73011
73107
73178
73299
73229
73216
73166
72861
72367
72294
72643
73236
73319
73265
73317
73871
74368
74566
74743
74934
75037
75134
75419
75705
75904
76157
78077
79592
80014
79385
79061
76423
77074
78179
78846
77904
77285
76938
76910
77142
77680
77877
78023
78171
78162
78115
78075
78045
78084
78157
78173
78163
78179
78267
78325
78364
78438
78478
78484
78142
77841
77838
77927
77997
78282
78759
78875
78580
78276
78015
77766
77721
77750
77888
77886
77827
77825
77847
77909
77959
78000
78061
78099
78088
78079
78017
77973
77941
77909
77917
77915
77918
77934
77935
77891
77874
77755
77779
77706
77475
77128
76910
76951
76910
76839
77062
77644
77520
77123
76683
76596
76621
76703
76707
76727
76687
76655
76531
76594
76487
76266
76078
76164
75992
76112
76110
76323
75982
75901
76322
76934
77675
77178
77513
77955
78099
78044
77917
77777
77604
77477
77345
77354
77269
77178
77045
76875
76776
76707
76703
76698
76680
76691
76737
76724
76733
76803
77172
77230
77326
77502
77702
77845
77914
77961
77988
77974
78011
78040
78039
78012
78042
78040
78080
78101
78130
78137
78188
78268
78321
78362
78451
78503
78519
78533
78513
78554
78591
78646
78685
78754
78786
78778
78810
78865
78868
78853
78874
78878
78859
78851
78863
78870
78899
78940
78961
78952
78911
78830
78779
78751
78770
78766
78832
78807
78799
78834
78917
78971
78887
78781
78740
78768
78816
78858
78928
78952
78966
78995
79033
79062
79067
79022
79032
79060
79049
79059
78983
78943
78932
78937
78925
78880
78850
78874
78891
78894
78911
78899
78830
78769
78736
78708
78703
78671
78636
78664
78691
78748
78816
78933
79070
79136
79230
79303
79327
79254
79158
79130
79081
79048
79037
79039
79124
79236
79294
79357
79518
79545
79519
79597
79689
79711
79750
79724
79787
79856
79906
79871
79757
79664
79635
79600
79608
79612
79629
79607
79626
79687
79704
79733
79747
79763
79810
79843
79830
79778
79742
79750
79757
79786
79806
79765
79678
79634
79616
79598
79609
79614
79593
79556
79525
79450
79360
79437
79669
79769
79731
79815
79809
79610
79547
79507
79431
79390
79348
79331
79261
79134
78988
78917
78889
78826
78834
78745
78672
78613
78522
78467
78464
78527
78649
78667
78719
78746
78526
78360
78194
78056
77954
77856
77822
77808
77810
77775
77825
77790
77817
77860
77913
77956
78018
78035
78025
77951
77894
77768
77659
77654
77730
77729
77701
77669
77706
77745
77823
77874
77968
78058
78062
78063
78114
78201
78214
78198
78238
78316
78305
78285
78268
78325
78415
78484
78554
78642
78773
78815
78724
78646
78602
78595
78512
78456
78453
78354
78226
78156
78104
78144
78185
78296
78444
78516
78504
78466
78461
78403
78292
78199
78136
78190
78199
78129
78168
78219
78293
78301
78403
78495
78560
78605
78616
78570
78522
78477
78396
78403
78397
78392
78460
78501
78570
78673
78773
78846
78855
78819
78798
78784
78777
78812
78852
78897
78936
78933
78938
78937
78877
78898
78931
78981
79018
78983
78882
78758
78565
78481
78369
78346
78389
78446
78482
78502
78508
78503
78433
78433
78401
78341
78341
78303
78350
78415
78417
78340
78220
78124
78104
78087
78080
78092
78142
78165
78227
78256
78304
78306
78347
78345
78302
78264
78182
78121
78065
78032
78021
78061
78036
78014
78024
78033
78084
78103
78187
78254
78291
78286
78303
78333
78400
78473
78564
78629
78640
78688
78741
78749
78807
78855
78883
78953
79048
79113
78993
78854
78817
78777
78769
78785
78792
78859
78826
78861
78868
78943
78970
78991
79047
79055
79085
79086
79046
78920
78850
78821
78805
78836
78863
78875
78941
78986
79046
79024
79054
79127
79132
79130
79079
79020
78985
78936
78908
78918
78922
78833
78789
78791
78828
78841
78842
78844
78848
78855
78862
78872
78915
78949
78963
78971
78968
78971
78908
78940
78991
79032
79058
79103
79131
79090
78931
78818
78748
78781
78808
78870
78895
78922
78941
78982
79027
79076
79103
79139
79178
79203
79242
79262
79242
79173
79063
78999
78997
78978
79022
79043
79053
79086
79128
79161
79209
79215
79282
79310
79271
79230
79176
79166
79174
79213
79219
79206
79184
79130
79109
79118
79124
79130
79092
79090
79067
79059
79066
79067
79050
79052
79053
79065
79102
79077
79072
79117
79151
79192
79252
79263
79187
79117
79020
78983
78979
79012
79042
79037
79061
79107
79118
79170
79227
79259
79317
79378
79390
79370
79366
79357
79394
79344
79248
79170
79162
79137
79114
79139
79222
79242
79248
79286
79221
79161
79039
78978
78833
78782
78734
78730
78737
78749
78746
78713
78710
78720
78652
78543
78497
78469
78450
78444
78510
78586
78682
78771
78877
78989
79039
79081
79122
79153
79200
79203
79208
79240
79258
79195
79055
79043
79113
79218
79275
79303
79328
79349
79402
79449
79451
79457
79436
79438
79389
79367
79354
79372
79444
79493
79508
79502
79516
79463
79412
79385
79358
79319
79281
79265
79255
79260
79241
79273
79305
79322
79310
79332
79321
79361
79378
79416
79390
79388
79395
79304
79123
78965
78917
78873
78853
78871
78920
78976
78984
79035
79126
79231
79262
79208
79027
78829
78556
78403
78326
78298
78323
78393
78383
78363
78334
78325
78319
78350
78355
78394
78369
78450
78512
78568
78571
78539
78593
78647
78778
78913
78974
78959
78917
78950
78980
78969
78957
78982
79020
79038
78997
78994
79063
79232
79504
79742
79986
80232
80021
79885
79852
79850
79847
79856
79830
79828
79903
80031
80102
80111
80136
80149
80105
80035
79949
79911
79896
79895
79837
79762
79740
79674
79725
79625
79537
79406
79312
79270
79293
79264
79265
79234
79232
79290
79343
79386
79415
79456
79458
79444
79454
79501
79496
79548
79504
79474
79435
79421
79338
79288
79290
79242
79298
79337
79348
79344
79218
79050
78997
78891
78855
78861
78868
78952
79034
79047
79097
79096
79095
79033
79006
78957
78927
78873
78780
78768
78716
78718
78715
78699
78660
78597
78589
78584
78541
78410
78404
78302
78447
78548
78578
78476
78367
78355
78646
79166
79062
78844
79033
79150
79356
79225
79486
79673
79563
79471
79261
79110
78953
78996
79061
79443
79560
79321
79487
80153
80161
79399
79956
80075
80131
80136
80134
79755
79709
79646
79303
78687
63998
79153
79148
79343
79186
79232
79150
79010
78743
78738
78783
78791
78876
78947
78998
79032
79052
78981
78792
78659
78574
78599
78567
78510
78535
78539
78478
78438
78409
78402
78415
78405
78411
78439
78465
78471
78511
78515
78548
78566
78574
78478
78369
78244
78207
78182
78183
78219
78285
78357
78400
78367
78380
78403
78439
78402
78445
78526
78555
78593
78542
78407
78202
78103
78005
77973
77993
78016
78027
78059
78133
78189
78224
78268
78305
78312
78271
78218
78197
78160
78161
78187
78203
78220
78186
78166
78160
78153
78174
78176
78165
78125
78118
78144
78183
78200
78223
78251
78267
78273
78265
78277
78312
78343
78413
78468
78498
78428
78209
78088
78027
78048
78125
78221
78260
78242
78214
78259
78307
78349
78411
78513
78508
78488
78479
78444
78382
78322
36658
78068
78013
78000
77974
78004
78040
78096
78133
78166
78218
78252
78266
78241
78218
78194
78149
78130
78152
78157
78205
78267
78284
78256
78205
78178
78157
78130
78122
78095
78116
78168
78192
78206
78223
78231
78234
78256
78277
78326
78358
78389
78437
78463
78451
78311
78162
78099
78103
78087
78124
78209
78362
78436
78506
78562
78582
78621
78638
78702
78700
78682
78649
78614
78583
78558
78442
78331
78276
78249
78247
78260
78334
78398
78441
78461
78487
78483
78423
78370
78334
78292
78290
78308
78294
78373
78387
78380
78411
78408
78351
78248
78198
78182
78174
78168
78172
78185
78211
78200
78233
78260
78303
78324
78365
78373
78450
78463
78552
78628
78661
78505
78358
78254
78190
78184
78216
78214
78226
78243
78273
78301
78362
78358
78365
78379
78406
78379
78332
78251
78221
78116
77991
77901
77889
77882
77912
77965
78038
78057
78103
78141
78200
78233
78231
78153
78102
78067
78059
78085
78078
78106
78236
78288
78338
78290
78237
78100
78083
78029
77979
77965
77994
78006
78023
78076
78116
78131
78196
78242
78285
78358
78404
78445
78469
78500
78417
78265
78132
78078
78097
78125
78189
78291
78328
78380
78416
78472
78542
78559
78577
78573
78560
78518
78461
78434
78423
78386
78330
78259
78260
78241
78285
78320
78363
78394
78428
78428
78428
78429
78367
78328
78302
78278
78278
78271
78274
78279
78322
78319
78372
78304
78205
78330
78481
78636
78887
79422
79839
80208
79982
80028
80172
79806
79672
79553
79145
79115
79087
79231
79345
78657
78459
77716
78102
78668
78577
78433
78589
78720
79014
79264
79170
79124
79112
79102
79014
78861
78715
78434
78485
78449
78461
78469
78412
78282
78222
78155
78087
78089
78072
78065
78109
78175
78286
78388
78432
78471
78541
78523
78584
78656
78765
78758
78769
78972
79298
79159
79443
79849
80262
79699
79123
79224
79076
79283
79287
79425
79496
79815
79922
79982
79989
79910
79830
79800
79742
79667
79564
79538
79533
79549
79483
79527
79479
79494
79467
79487
79493
79552
79535
79479
79351
79308
79295
79224
79233
79191
79123
79057
78944
78773
78593
78454
78560
78681
78649
78570
78604
78610
78661
78729
78771
78808
78827
78839
78824
78859
78851
78786
78773
78779
78727
78622
78600
78653
78708
78748
78803
78885
78917
78920
79033
79099
79236
79368
79375
79351
79331
79431
79643
79657
79682
79658
79555
79431
79656
79658
79643
79612
79619
79602
79566
79565
79534
79517
79504
79476
79425
79406
79332
79249
79113
79051
79006
78821
78593
78713
78848
78858
78750
78705
78758
78772
78799
78893
78978
79034
79090
79088
79099
79216
79313
79381
79394
79355
79387
79336
79321
79418
79392
79258
79259
79227
79273
79322
79386
79471
79582
79599
79627
79602
79552
79506
79486
79470
79427
79354
79352
79306
79285
79235
79217
79206
79222
79217
79172
79199
79231
79209
79173
79175
79202
79235
79283
79329
79330
79374
79353
79263
79198
79135
79113
79103
79159
79200
79258
79278
79297
79347
79386
79391
79398
79396
79429
79420
79425
79424
79449
79404
79310
79132
79062
78973
78934
79217
79367
79291
79233
79045
78886
78793
78574
78313
78042
77914
77457
77341
77185
77336
77146
77001
76916
76453
76229
76109
76062
76000
76010
76098
76501
77064
77134
77225
77382
77584
77639
77715
77715
77724
77675
77620
77485
77350
77327
77346
77360
77369
77329
77311
77329
77299
77349
77370
77360
77352
77340
77465
77516
77568
77623
77656
77719
77738
77661
77596
77615
77595
77626
77646
77707
77735
77713
77716
77798
77841
77831
77825
77842
77795
77804
77901
77913
77883
77805
77820
77783
77728
77713
77680
77677
77747
77776
77797
77806
77817
77880
77956
77954
77931
77914
77910
77843
77800
77783
77757
77754
77667
77523
77326
76993
76725
76572
76304
76217
76392
76495
76558
76753
76996
77139
77357
77474
77660
77910
78079
78155
78216
78328
78417
78475
78558
78651
78798
78901
79164
79421
79947
79947
79959
79952
79895
79842
79782
79798
79860
79805
79737
79694
79615
79575
79575
79540
79517
79427
79399
79315
79284
79346
79219
79081
79196
79242
79306
79341
79355
79333
79340
79347
79333
79345
79327
79314
79348
79345
79339
79396
79340
79238
79166
79117
79114
79081
79101
79153
79192
79233
79312
79342
79396
79433
79482
79507
79543
79556
79576
79573
79566
79569
79559
79593
79582
79584
79589
79578
79561
79566
79554
79512
79483
79464
79453
79455
79445
79435
79432
79415
79411
79364
79321
79303
79294
79296
79336
79439
79535
79601
79637
79678
79716
79768
79801
79873
79926
79971
79998
80009
79968
79914
79773
79634
79436
79266
79157
79086
78972
78842
78845
78878
78930
79027
79070
79128
79185
79218
79260
79304
79350
79416
79442
79467
79485
79512
79556
79603
79640
79676
79687
79727
79782
79805
79853
79872
79854
79847
79840
79865
79879
79872
79898
79929
79951
79966
80011
80009
80015
80036
80042
80045
80051
80065
80076
80074
80081
80104
80096
80033
79974
79970
79981
80003
80024
80046
80090
80095
80112
80109
80101
80105
80094
80124
80113
80122
80127
80123
80111
80114
80109
80108
80105
80115
80131
80123
80135
80125
80129
80133
80128
80116
80127
80116
80102
80095
80066
80051
80063
80044
80059
80038
80040
80031
80017
80022
80013
79997
80005
80006
80045
80100
80102
80105
80121
80124
80100
80112
80094
80080
80063
80059
80039
80024
80025
80012
80006
80009
79984
79962
79946
79944
79930
79922
79909
79909
79915
79974
80032
80065
80077
80074
80041
80065
80052
80035
80005
79985
79951
79971
79953
79949
79957
79949
79940
79938
79928
79929
79907
79903
79892
79868
79880
79931
79989
80040
80050
80048
80055
80026
80003
80000
79984
79962
79955
79954
79941
79933
79928
79921
79923
79913
79898
79891
79872
79881
79861
79865
79921
79976
80021
80060
80067
80075
80080
80060
80063
80040
80034
80012
80009
79998
79981
79986
79986
79972
79963
79962
79962
79951
79950
79946
79940
79944
79988
80055
80101
80119
80136
80120
80122
80129
80123
80113
80113
80107
80104
80097
80098
80089
80096
80078
80085
80082
80071
80075
80057
80062
80026
80051
80042
80042
80105
80135
80140
80135
80132
80129
80122
80122
80126
80131
80125
80129
80131
80134
80130
80134
80130
80128
80143
80115
80123
80130
80129
80123
80123
80114
80113
80125
80117
80130
80120
80139
80125
80121
80124
80132
80123
80121
80117
80116
80122
80131
80131
80113
80120
80119
80128
80119
80107
80115
80098
80113
80128
80117
80129
80117
80111
80105
80118
80104
80108
80095
80106
80106
80107
80103
80119
80102
80099
80114
80104
80121
80122
80110
80122
80117
80103
80111
80096
80105
80107
80104
80120
80087
80106
80106
80097
80104
80104
80104
80090
80108
80085
80096
80082
80092
80095
80102
80076
80105
80089
80094
80096
80094
80109
80091
80099
80098
80081
80085
80083
80099
80090
80089
80085
80078
80088
80089
80086
80087
80083
80081
80087
80085
80082
80083
80104
80100
80085
80090
80097
80091
80080
80088
80096
80099
80092
80076
80100
80083
80084
80076
80086
80059
80070
80070
80069
80068
80053
80069
80068
80095
80078
80077
80083
80073
80090
80083
80092
80083
80086
80073
80076
80072
80072
80076
80075
80067
80076
80068
80080
80091
80070
80071
80072
80065
80070
80061
80072
80091
80087
80070
80077
80069
80076
80075
80080
80084
80074
80072
80075
80077
80073
80073
80072
80074
80067
80073
80079
80078
80068
80078
80061
80059
80077
80073
80078
80076
80082
80100
80059
80061
80063
80049
80051
80065
80060
80066
80087
80089
80066
80070
80090
80086
80074
80058
80068
80069
80070
80068
80060
80058
80072
80065
80062
80051
80057
80057
80061
80067
80079
80071
80046
80025
79990
79985
80002
79990
80000
80023
80053
80037
80047
80056
80051
80041
80055
80062
80054
80056
80045
80042
80033
80057
80030
80046
80038
80040
80029
80038
80022
80013
80051
80024
80035
80016
80003
79970
79956
79983
79985
79984
79999
80027
80004
80040
80015
80022
80043
80023
80030
80030
80038
80033
80015
80022
80011
80026
80012
80004
80019
80011
80020
80011
80013
80006
80026
79964
79963
79953
79946
79968
79980
79991
80001
80008
80008
80003
80032
80019
80021
80020
80008
80014
80008
79994
80016
79999
80009
80017
80005
80006
80008
80005
80004
80011
80001
80013
79993
79991
80010
80011
80014
80007
80019
80022
80026
80014
80004
80021
80021
80012
80017
80020
80008
80020
80017
79996
80005
80020
80021
80013
80021
80011
80008
80022
80020
80027
80004
80022
80018
80022
80020
80026
80015
80010
80035
80016
80021
80019
80013
80014
80002
80005
80025
80011
80019
80002
80011
80020
80018
80009
80002
80002
80015
80004
80011
80009
80035
80017
80016
80014
80022
80020
80019
80021
80011
80019
80029
80013
80026
80027
80012
80013
80028
80020
80017
80018
80008
80013
80026
80014
80017
79998
80004
80011
80005
79993
80000
79987
80007
80003
80000
79990
79997
80012
80009
80016
80006
79993
80013
80010
79996
80000
79988
79998
79995
79996
79989
80007
79993
79992
79997
80010
79977
79987
79986
79986
79975
79992
79985
79980
79971
79980
79964
79973
79967
79962
79963
79982
79978
79988
79988
79981
79966
79965
79966
79968
79973
79961
79982
79981
79963
79964
79966
79960
79952
79954
79956
79953
79956
79950
79954
79956
79950
79942
79960
79956
79948
79930
79951
79952
79940
79946
79957
79950
79935
79965
79931
79949
79960
79955
79946
79940
79954
79946
79944
79950
79960
79952
79938
79944
79944
79934
79935
79947
79929
79938
79936
79932
79937
79939
79928
79921
79928
79936
79939
79943
79939
79928
79915
79897
79915
79927
79916
79925
79926
79942
79937
79937
79931
79935
79925
79927
79915
79916
79928
79926
79921
79934
79896
79906
79912
79913
79892
79904
79916
79910
79918
79892
79897
79929
79925
79902
79903
79904
79912
79918
79919
79905
79905
79906
79909
79905
79916
79890
79901
79903
79892
79899
79897
79903
79897
79911
79894
79887
79889
79898
79885
79886
79885
79888
79899
79891
79898
79884
79881
79879
79880
79870
79868
79879
79866
79866
79882
79885
79879
79870
79863
79850
79857
79848
79847
79853
79873
79858
79853
79851
79854
79840
79833
79845
79849
79842
79867
79857
79855
79855
79850
79874
79869
79885
79886
79882
79877
79859
79877
79873
79873
79864
79860
79869
79855
79868
79855
79861
79863
79846
79845
79842
79852
79832
79836
79843
79855
79824
79831
79841
79830
79817
79830
79822
79840
79848
79835
79839
79834
79829
79837
79838
79830
79825
79839
79835
79837
79829
79836
79828
79823
79840
79822
79827
79824
79827
79824
79820
79820
79812
79812
79813
79806
79810
79820
79817
79800
79816
79791
79795
79803
79791
79803
79805
79805
79806
79820
79822
79798
79807
79811
79813
79804
79804
79805
79804
79798
79795
79803
79817
79802
79793
79790
79792
79785
79804
79800
79793
79805
79788
79771
79769
79774
79775
79774
79783
79752
79764
79779
79756
79769
79779
79775
79773
79773
79777
79768
79774
79769
79770
79769
79772
79758
79774
79775
79783
79766
79767
79765
79779
79782
79780
79773
79769
79771
79782
79779
79778
79777
79767
79787
79762
79782
79792
79789
79778
79772
79777
79770
79764
79760
79775
79764
79763
79774
79756
79780
79778
79770
79786
79786
79777
79757
79760
79777
79783
79777
79775
79785
79773
79755
79774
79779
79784
79762
79775
79777
79799
79775
79771
79766
79753
79783
79784
79784
79797
79803
79780
79781
79788
79767
79800
79789
79792
79785
79789
79789
79787
79772
79763
79775
79791
79784
79787
79790
79783
79767
79769
79760
79774
79761
79776
79775
79794
79787
79766
79759
79772
79767
79781
79773
79783
79771
79795
79793
79782
79787
79788
79794
79789
79782
79793
79793
79802
79798
79791
79796
79790
79782
79787
79791
79779
79775
79786
79768
79778
79769
79770
79769
79780
79786
79768
79783
79792
79775
79782
79776
79786
79790
79787
79795
79784
79797
79781
79787
79790
79787
79783
79787
79778
79794
79794
79798
79789
79787
79788
79778
79788
79785
79785
79798
79795
79783
79778
79777
79790
79796
79761
79757
79733
79773
79761
79780
79785
79792
79799
79807
79809
79814
79801
79809
79814
79802
79811
79808
79800
79800
79798
79829
79824
79805
79808
79800
79815
79807
79809
79823
79828
79807
79738
79743
79746
79739
79743
79760
79763
79781
79791
79823
79833
79836
79831
79842
79841
79847
79830
79833
79842
79851
79846
79844
79836
79834
79827
79845
79850
79851
79842
79848
79841
79831
79848
79817
79749
79750
79746
79743
79750
79766
79753
79788
79786
79825
79805
79848
79855
79856
79852
79847
79840
79848
79859
79851
79843
79856
79843
79851
79838
79837
79838
79848
79844
79829
79847
79857
79826
79844
79837
79839
79843
79829
79778
79747
79755
79724
79747
79748
79794
79778
79767
79774
79805
79823
79846
79834
79821
79821
79820
79826
79822
79816
79819
79823
79811
79799
79815
79813
79803
79809
79800
79803
79811
79811
79791
79794
79801
79792
79808
79808
79734
79707
79690
79676
79680
79704
79723
79708
79740
79746
79764
79761
79784
79769
79774
79772
79766
79765
79772
79775
79772
79772
79778
79769
79769
79764
79761
79768
79784
79762
79764
79760
79767
79765
79755
79700
79698
79694
79699
79688
79694
79705
79722
79725
79754
79770
79770
79780
79789
79758
79777
79786
79759
79772
79783
79779
79784
79778
79784
79765
79774
79773
79784
79782
79774
79781
79789
79752
79718
79698
79695
79681
79708
79699
79723
79733
79753
79774
79777
79800
79790
79775
79792
79779
79776
79799
79785
79780
79794
79783
79786
79781
79785
79787
79784
79781
79798
79787
79805
79771
79790
79771
79710
79671
79660
79662
79660
79666
79689
79692
79726
79735
79756
79750
79758
79757
79775
79735
79776
79769
79772
79764
79768
79757
79763
79756
79758
79753
79749
79756
79730
79746
79740
79756
79737
79727
79738
79728
79728
79732
79739
79733
79739
79736
79743
79698
79682
79675
79668
79675
79698
79708
79737
79735
79738
79742
79736
79744
79732
79733
79734
79738
79744
79741
79726
79748
79737
79739
79743
79736
79721
79727
79742
79736
79742
79733
79720
79719
79722
79718
79731
79724
79734
79731
79738
79737
79729
79732
79715
79720
79740
79718
79729
79734
79751
79756
79746
79746
79738
79752
79726
79753
79746
79728
79741
79745
79735
79735
79728
79719
79727
79720
79727
79714
79715
79710
79717
79689
79727
79707
79709
79719
79711
79714
79697
79696
79707
79704
79703
79699
79713
79700
79699
79700
79706
79687
79691
79685
79678
79670
79682
79679
79651
79670
79652
79671
79654
79656
79648
79642
79635
79622
79626
79625
79639
79644
79645
79630
79627
79629
79641
79618
79626
79627
79614
79612
79592
79601
79611
79603
79603
79606
79593
79569
79578
79581
79577
79577
79584
79578
79564
79555
79557
79566
79541
79544
79540
79537
79530
79534
79528
79538
79530
79545
79540
79530
79543
79520
79523
79517
79530
79509
79528
79502
79523
79483
79508
79500
79511
79494
79500
79486
79493
79477
79469
79472
79476
79469
79479
79468
79468
79447
79452
79458
79451
79451
79442
79441
79421
79441
79436
79454
79458
79461
79452
79459
79462
79441
79455
79459
79479
79460
79447
79451
79467
79476
79452
79467
79469
79480
79482
79472
79485
79484
79474
79460
79475
79477
79485
79484
79488
79480
79470
79484
79467
79473
79468
79484
79477
79460
79494
79503
79496
79505
79517
79513
79514
79518
79533
79524
79529
79527
79541
79528
79546
79536
79551
79564
79552
79543
79561
79560
79557
79567
79564
79563
79565
79574
79568
79572
79580
79568
79582
79589
79586
79557
79581
79592
79597
79587
79600
79592
79591
79592
79602
79628
79624
79623
79627
79640
79643
79647
79656
79645
79664
79656
79658
79664
79665
79664
79668
79653
79659
79675
79663
79671
79657
79661
79649
79651
79645
79654
79659
79630
79586
79600
79588
79573
79606
79613
79606
79621
79633
79654
79655
79658
79669
79651
79658
79654
79660
79663
79655
79656
79655
79651
79648
79653
79670
79657
79662
79665
79657
79675
79670
79660
79674
79675
79676
79632
79615
79594
79595
79587
79589
79599
79605
79635
79615
79660
79644
79673
79671
79664
79661
79665
79660
79678
79660
79682
79695
79682
79699
79705
79703
79692
79689
79694
79701
79694
79701
79699
79682
79691
79679
79688
79680
79679
79700
79699
79698
79626
79596
79586
79591
79585
79599
79625
79625
79629
79637
79663
79669
79665
79677
79662
79666
79670
79664
79653
79665
79677
79681
79679
79689
79687
79687
79687
79681
79693
79673
79686
79680
79679
79678
79679
79679
79680
79604
79564
79549
79560
79540
79564
79575
79555
79596
79603
79623
79624
79627
79628
79606
79601
79611
79632
79599
79630
79625
79633
79627
79635
79630
79632
79654
79647
79651
79655
79663
79655
79645
79651
79646
79604
79541
79512
79517
79507
79486
79517
79500
79546
79535
79556
79553
79596
79596
79595
79595
79573
79593
79590
79593
79607
79603
79619
79620
79610
79637
79648
79672
79671
79639
79677
79684
79667
79681
79679
79684
79674
79690
79681
79688
79692
79611
79563
79548
79555
79561
79531
79558
79567
79588
79580
79632
79641
79628
79655
79679
79676
79676
79679
79683
79702
79705
79718
79697
79711
79726
79746
79760
79760
79791
79769
79772
79792
79780
79780
79780
79785
79788
79796
79789
79791
79809
79793
79795
79788
79810
79814
79751
79706
79687
79680
79682
79701
79721
79728
79735
79759
79759
79765
79784
79808
79796
79774
79823
79800
79808
79822
79831
79821
79824
79834
79827
79854
79849
79848
79841
79858
79839
79850
79853
79850
79843
79843
79838
79868
79853
79829
79774
79752
79755
79774
79754
79764
79782
79778
79795
79823
79825
79861
79867
79857
79857
79843
79842
79874
79856
79860
79878
79870
79861
79891
79883
79895
79882
79895
79889
79881
79889
79875
79885
79872
79904
79881
79841
79785
79781
79770
79780
79794
79784
79782
79780
79782
79814
79828
79846
79859
79854
79846
79846
79878
79846
79879
79874
79898
79868
79879
79901
79909
79913
79906
79911
79893
79909
79911
79909
79911
79912
79900
79911
79903
79909
79917
79887
79812
79816
79784
79788
79794
79791
79791
79796
79818
79829
79816
79840
79842
79869
79858
79841
79864
79864
79879
79875
79871
79891
79905
79887
79892
79916
79919
79902
79920
79940
79939
79923
79939
79937
79940
79928
79939
79952
79923
79941
79947
79880
79822
79823
79783
79793
79798
79824
79815
79836
79835
79842
79888
79899
79895
79888
79890
79879
79879
79886
79886
79905
79905
79911
79926
79923
79920
79915
79941
79960
79951
79956
79941
79940
79950
79955
79964
79951
79931
79863
79837
79808
79795
79799
79793
79794
79823
79830
79832
79862
79877
79865
79887
79875
79885
79893
79868
79892
79900
79905
79901
79917
79915
79952
79927
79956
79954
79975
79972
79978
79978
79971
79988
79982
79964
79965
79927
79863
79827
79811
79830
79815
79812
79841
79846
79859
79848
79893
79895
79907
79912
79905
79915
79887
79914
79921
79934
79921
79936
79940
79949
79967
79962
79956
79984
80001
79991
79993
79985
79999
79989
79988
79992
79994
79992
79997
79987
79988
79986
79988
79952
79899
79865
79865
79860
79875
79864
79888
79894
79920
79909
79947
79932
79934
79975
79950
79948
79931
79948
79952
79965
79979
79973
79976
79957
79978
79975
79986
79998
79993
79992
79985
80000
79996
79992
79997
80002
79999
80000
80004
80019
79991
80007
80008
79987
79982
79920
79918
79898
79902
79894
79908
79932
79930
79955
79956
79977
79971
79989
79994
79979
79991
79980
79994
79999
79996
80005
79998
79996
79982
79996
79992
80008
79992
80000
79988
80001
79996
79994
79997
79993
80000
79996
79987
79986
79958
79899
79888
79906
79893
79902
79913
79922
79934
79927
79963
79978
79990
79968
79987
79977
79954
79965
79966
79985
79992
79992
79988
80002
80022
80023
80009
80021
80014
80002
80009
80003
80015
80012
80012
80014
80011
80019
80022
79977
79928
79899
79891
79880
79881
79904
79889
79915
79924
79918
79947
79962
79986
79986
79976
79977
79985
79970
79963
79959
79966
80009
80019
80000
80028
80025
80017
80015
80019
80037
80029
80042
80032
80027
80012
80030
80018
80037
80025
80034
80020
80032
79995
79948
79926
79918
79907
79910
79917
79931
79941
79943
79965
79992
80017
79984
80002
80010
79997
80001
79987
79989
79994
80008
80002
80019
80019
80017
80036
80040
80035
80039
80041
80028
80046
80026
80021
80031
80037
80048
80044
79966
79954
79931
79920
79919
79940
79936
79936
79945
79965
79970
79969
80025
80007
79997
80003
80013
80005
80010
80026
80039
80024
80040
80021
80040
80040
80033
80046
80053
80046
80058
80054
80054
80041
80053
80044
80045
80038
79977
79954
79928
79914
79922
79932
79939
79941
79946
79954
79952
79981
79993
80010
80002
80006
79999
80000
80018
80021
80025
80031
80033
80040
80050
80036
80028
80046
80058
80052
80052
80045
80045
80063
80055
80043
80062
80063
80054
80064
80051
80056
80060
80057
80019
79973
79950
79934
79937
79939
79951
79951
79942
79955
79950
79964
79984
80002
80013
79993
80008
79992
79985
79989
80010
80008
80000
80020
80027
80045
80024
80048
80059
80039
80058
80048
80031
80046
80047
80052
80056
80057
80055
48818
80049
80055
80031
80061
80059
80049
79978
79944
79936
79949
79942
79957
79984
79962
79996
80029
80022
80045
80050
80049
80038
80038
80045
80056
80067
80029
80047
80045
80042
80050
80063
80057
80061
80056
80070
80064
80058
80057
80056
80076
80055
80055
80069
80067
80058
80043
80001
79976
79967
79980
79979
79987
79986
80001
80007
80026
80048
80058
80074
80055
80078
80058
80056
80068
80061
80082
80066
80074
80083
80076
80080
80093
80086
80094
80070
80090
80060
80092
80072
80083
80074
80059
80077
80085
80091
80022
80012
79990
79992
79972
79979
79996
80032
80048
80052
80063
80054
80076
80079
80075
80080
80076
80082
80067
80080
80079
80090
80080
80076
80072
80076
80087
80077
80090
80086
80092
80066
80079
80080
80084
80087
80076
80073
80080
80086
80080
80045
80030
80007
80024
80003
80018
80023
80023
80032
80031
80056
80072
80076
80069
80078
80087
80059
80096
80079
80072
80097
80072
80080
80072
80073
80067
80077
80080
80078
80063
80075
80075
80077
80080
80076
80070
80083
80062
80037
79979
79969
79956
79971
79973
79970
79983
79993
80005
79995
80034
80027
80030
80045
80005
80025
80021
80036
80046
80054
80047
80048
80063
80042
80067
80061
80059
80087
80076
80080
80072
80074
80069
80079
80092
80083
80042
79969
79954
79940
79934
79934
79944
79945
79945
79960
79950
79966
79992
79997
79989
80007
79981
79998
79982
80022
79993
80002
80001
80005
80025
80024
80018
80034
80056
80032
80044
80054
80049
80044
80060
80060
80068
80056
80058
80058
80038
80046
80044
80062
80046
80046
80045
80058
80034
79968
79923
79953
79928
79935
79943
79953
79959
79943
79956
79985
79981
80005
80011
79998
79998
80005
80002
80006
79992
80017
80026
80000
80003
80016
80032
80032
80042
80019
80032
80045
80048
80051
80034
80033
80028
80050
80041
80026
80030
80026
80050
80026
79990
79957
79934
79952
79926
79933
79942
79964
79962
79974
79986
79998
80024
80035
80001
80024
80004
80005
80018
80018
80029
80040
80030
80033
80022
80036
80035
80032
80035
80027
80032
80029
80016
80033
80018
80030
80042
80022
80025
80025
80032
80047
80003
79993
79961
79958
79972
79969
79969
79963
79970
79967
79978
80014
79989
80012
80015
80007
80006
80007
80019
80008
80025
80028
80028
80032
80032
80025
80017
80025
80011
80012
80011
80018
80021
80014
80020
80019
80015
80022
80022
80019
80010
79995
79981
80007
80009
80001
79997
80022
80011
80016
79977
79971
79984
79978
79983
79981
79989
80005
80009
79996
80005
79986
80001
80003
79998
80018
80004
79997
79992
79996
79988
79989
79995
79982
79987
79983
79980
79991
79970
79979
79989
79976
79974
79972
79968
79976
79982
79967
79964
79959
79959
79971
79949
79924
79889
79886
79885
79864
79892
79909
79911
79927
79936
79934
79946
79957
79945
79965
79960
79930
79943
79964
79947
79929
79946
79935
79947
79954
79949
79938
79951
79934
79941
79932
79926
79918
79925
79923
79942
79909
79934
79935
79925
79927
79931
79887
79860
79857
79867
79877
79894
79885
79891
79899
79900
79928
79931
79936
79932
79929
79921
79929
79926
79938
79916
79925
79926
79916
79905
79926
79929
79925
79921
79925
79908
79929
79917
79920
79924
79911
79902
79915
79926
79922
79915
79913
79916
79910
79929
79913
79896
79886
79885
79880
79897
79895
79888
79912
79908
79904
79935
79927
79919
79949
79940
79924
79931
79931
79936
79944
79928
79931
79937
79931
79949
79946
79938
79928
79915
79938
79928
79945
79936
79936
79932
79936
79924
79922
79938
79936
79946
79926
79934
79949
79931
79896
79923
79891
79895
79905
79937
79922
79913
79931
79944
79950
79960
79942
79957
79960
79956
79965
79964
79941
79968
79950
79967
79960
79969
79979
79964
79964
79962
79936
79964
79964
79954
79980
79973
79961
79965
79970
79970
79974
79932
79885
79861
79852
79869
79887
79893
79885
79880
79908
79919
79930
79950
79950
79941
79940
79910
79935
79923
79916
79909
79941
79903
79937
79935
79947
79958
79950
79961
79958
79958
79972
79978
79982
79980
79954
79964
79970
79948
79935
79880
79839
79812
79810
79833
79845
79833
79836
79838
79835
79859
79887
79876
79898
79892
79881
79853
79873
79877
79886
79892
79901
79892
79927
79910
79935
79938
79948
79916
79941
79932
79939
79931
79935
79946
79946
79931
79929
79931
79940
79928
79928
79908
79833
79785
79792
79738
79665
79615
79581
79547
79441
79392
79369
79328
79249
79171
79028
78860
78682
78452
78170
78016
77960
77972
78004
78027
78091
78272
78363
78430
78451
78483
78476
78457
78442
78369
78271
78207
78269
78366
78574
78773
78874
78952
79018
78959
78811
78574
78294
77928
77783
77614
77428
77223
76953
76740
76508
76553
76584
76519
76525
76570
76608
76618
76588
76624
76644
76742
76983
77247
77700
77898
77613
77756
77552
78219
79126
79134
78711
77953
76088
74971
73944
73421
73250
73208
72596
71445
72103
73080
73502
71970
72142
73504
73225
73113
73249
73458
73685
74108
74938
75776
76175
76371
76606
76594
76640
76512
76366
76229
75912
75748
75804
75905
76084
76321
76482
76623
76627
76882
75186
75722
77164
77623
77739
77564
77539
77536
77497
77394
77361
77393
77266
77069
76962
77165
77441
77577
77875
78062
78148
78086
78123
78104
78093
77697
77362
77495
77429
77435
77378
77360
77337
77358
77408
77494
77490
77472
77484
77426
77330
77253
77187
77127
77085
77094
77121
77086
77075
77397
77477
77089
76533
76237
76121
74885
74763
75922
75636
74904
75015
75102
75165
75187
75279
75320
75359
75372
75401
75429
75512
75599
75682
75783
75845
75958
76031
76077
76160
76186
76261
76349
76387
76505
76585
76710
76734
76702
76686
76645
76594
76610
76639
76660
76694
76749
76768
76804
76851
76910
76938
76974
76945
76937
76944
76943
76948
76986
77018
77043
77081
77103
77099
77018
76861
76634
76485
76370
76317
76270
76312
76366
76384
76347
76181
76142
76169
76227
76380
76500
76467
76391
76381
76461
76500
76533
76430
76444
76505
76490
76387
76317
76243
76198
76158
76132
76139
76108
76097
76100
76106
76150
76227
76256
76263
76169
75987
75885
75923
75885
76186
76199
76257
76312
76400
76390
76285
76187
76076
75866
76015
76073
76169
76216
76251
76264
76320
76312
76077
75881
75807
75663
75611
75538
75587
75680
75735
75789
75911
76126
76254
76341
76314
76259
76229
76214
76233
76267
76357
76423
76511
76588
76651
76775
76882
76920
76962
76523
76299
76201
76271
76690
76985
77039
77032
77048
77088
77078
77046
76955
76829
76750
76657
76401
76213
75983
75898
76382
76450
76415
76193
76106
76074
76107
76181
76637
76934
76976
77021
77072
77091
77141
77149
77168
77163
77025
76703
76346
76150
76089
76062
76052
76027
76018
76154
76445
76629
76735
76804
76903
76953
76934
76579
76534
76522
76492
76430
76428
76622
76861
76921
76885
76819
76726
76705
76723
76774
76651
76470
76372
76374
76358
76339
76547
76764
76854
76884
76952
77010
77062
77116
77158
77155
77169
77152
77178
77223
77191
77098
77034
76957
76908
76838
76753
76708
76631
76580
76543
76526
76692
77011
77112
77183
77268
77293
77247
77236
77195
77132
77131
77157
77044
77045
77036
77001
76933
76840
76727
76643
76661
76784
76900
77012
77055
77101
77059
76947
76822
76766
76696
76715
76754
76821
76850
76886
76959
77050
77112
77134
77091
77030
76988
76977
77001
77032
77088
77137
77143
77170
77253
77260
77242
77257
77225
77212
77200
77162
77144
77084
77068
77056
77052
77072
77062
77024
76927
76863
76828
76766
76664
76554
76497
76396
76371
76388
76416
76492
76521
76548
76603
76640
76659
76652
76607
76548
76469
76480
76527
76580
76593
76536
76480
76479
76453
76490
76491
76521
76531
76537
76564
76580
76596
76611
76633
76627
76612
76600
76579
76574
76563
76581
76585
76577
76540
76465
76382
76317
76290
76270
76283
76311
76318
76354
76408
76476
76533
76471
76437
76456
76496
76509
76526
76525
76521
76554
76559
76572
76533
76403
76290
76172
76115
76101
76096
76114
76132
76170
76203
76222
76271
76283
76284
76307
76321
76323
76343
76362
76398
76466
76497
76520
76463
76395
76352
76376
76422
76488
76563
76629
76714
76779
76842
76894
76917
76944
76968
76956
77006
76970
76992
76963
76999
77010
76948
76832
76677
76532
76457
76376
76343
76279
76263
76281
76296
76330
76409
76425
76452
76426
76393
76356
76363
76380
76374
76364
76389
76404
76407
76346
76230
76123
76073
76063
76036
76071
76132
76158
76208
76252
76266
76273
76284
76281
76309
76350
76423
76461
76499
76571
76534
76541
76569
76540
76450
76338
76280
76273
76266
76307
76302
76316
76356
76424
76447
76479
76500
76497
76509
76501
76519
76553
76532
76541
76585
76597
76614
76644
76682
76685
76693
76747
76784
76748
76623
76514
76478
76517
76531
76561
76583
76679
76842
76997
77110
77234
77363
77471
77643
77781
77916
77966
78043
78204
78346
78485
78621
78767
78826
78874
78971
79075
79139
79201
79284
79353
79425
79429
79399
79328
79321
79348
79377
79397
79409
79438
79471
79547
79585
79620
79596
79586
79529
79505
79442
79429
79377
79343
79332
79328
79339
79308
79273
79249
79213
79157
79110
79057
79013
78955
78932
78951
78926
78820
78804
78808
78843
78865
78879
78847
78830
78834
78851
78863
78866
78830
78810
78776
78763
78771
78789
78817
78849
78870
78896
78902
78912
78934
78918
78921
78935
78924
78919
78925
78881
78866
78862
78875
78893
78892
78907
78901
78892
78820
78732
78712
78653
78577
78529
78487
78477
78460
78464
78469
78469
78440
78417
78400
78395
78349
78292
78224
78176
78106
78106
78072
78035
78013
21399
21373
21393
21409
21392
21342
21328
21325
21320
21318
78003
77986
78008
77992
77967
77995
77966
77951
77925
77900
77897
77873
77870
77819
77749
77631
77562
77546
77498
77465
77433
77434
77420
77405
77413
77378
77396
77391
77390
77412
77386