-182,11,53
-368,-30664,-50
10368,-30720,-49
10816,-30720,-46
8722,-23009,12
-47,35,44
-47,33,45
-48,34,46
-52,32,44
-49,28,49
-45,28,48
-41,30,46
-36,30,44
-27,28,46
-17,26,42
-12,23,43
-6,26,45
0,27,44
0,25,44
4,26,49
5,25,48
7,23,49
9,22,51
13,13,53
13,15,48
14,14,50
13,11,47
17,8,45
16,4,45
18,0,40
18,1,41
18,7,41
19,9,41
18,14,43
18,19,48
16,23,46
15,23,46
11,28,46
12,26,45
9,26,43
3,26,38
1,25,38
-1,27,33
-3,26,31
-3,25,27
-4,25,27
-9,28,24
-9,26,23
-12,30,22
-13,37,25
-16,41,23
-20,49,30
-26,56,32
-28,66,42
-32,68,43
-38,80,50
-41,87,56
-42,98,64
-42,109,67
-39,122,74
-37,133,75
-40,141,82
-38,150,82
-39,151,83
-40,150,87
-47,146,85
-49,141,87
-57,135,89
-63,128,83
-72,123,87
-79,123,87
-87,122,86
-95,121,86
-101,121,84
-106,125,79
-109,129,79
-119,139,75
-131,154,71
-141,174,63
-154,190,59
-169,204,52
-180,211,45
-194,221,39
-208,231,33
-216,238,29
-229,248,19
-243,253,11
-248,261,6
-255,269,2
-263,283,2
-262,305,-3
-263,326,-2
-259,342,-2
-257,363,-1
-249,377,2
-238,389,6
-230,401,10
-217,401,15
-209,390,20
-205,381,20
-200,371,23
-198,356,32
-189,339,31
-183,323,32
-169,302,34
-155,290,37
-140,275,43
-122,261,46
-106,236,53
-91,217,56
-76,198,61
-61,183,65
-52,163,70
-41,145,70
-33,124,77
-25,108,73
-19,92,72
-15,72,71
-8,55,64
-4,42,60
2,28,56
3,19,49
8,5,42
10,0,34
11,-10,34
16,-19,32
12,-24,29
12,-27,24
10,-21,21
8,-15,19
3,-3,19
0,14,15
-7,27,13
-15,44,12
-19,54,10
-23,64,6
-27,71,6
-27,75,3
-20,76,-1
-16,74,-7
-7,67,-8
-1,64,-12
6,59,-12
15,60,-13
21,57,-8
28,58,-6
28,57,-4
31,55,-2
24,54,-1
21,52,-2
16,48,-5
8,43,-7
0,36,-9
-3,26,-16
-9,15,-22
-13,2,-27
-10,-9,-33
-13,-21,-36
-12,-30,-40
-9,-33,-41
-5,-39,-37
-1,-40,-37
3,-41,-30
3,-43,-23
2,-47,-20
1,-52,-15
-2,-55,-19
-7,-61,-17
-12,-65,-16
-18,-71,-22
-28,-81,-27
-37,-82,-34
-50,-89,-39
-63,-87,-47
-76,-88,-50
-86,-86,-58
-100,-87,-60
-112,-80,-63
-132,-74,-65
-148,-59,-70
-168,-56,-71
-185,-54,-70
-200,-56,-71
-224,-58,-73
-245,-66,-75
-264,-72,-79
-284,-89,-85
-312,-112,-90
-337,-129,-95
-361,-142,-97
-393,-163,-104
-427,-183,-111
-460,-207,-115
-487,-224,-121
-509,-226,-126
-535,-225,-132
-553,-220,-137
-572,-223,-145
-584,-227,-150
-599,-234,-161
-607,-249,-171
-618,-264,-177
-632,-297,-186
-651,-332,-197
-676,-376,-212
-698,-423,-223
-715,-447,-236
-734,-436,-244
-758,-407,-245
-769,-372,-245
-785,-339,-246
-798,-310,-243
-808,-288,-240
-820,-271,-238
-835,-262,-235
-841,-265,-238
-850,-275,-238
-860,-299,-239
-871,-331,-237
-877,-377,-237
-882,-432,-242
-886,-477,-240
-886,-501,-240
-887,-506,-232
-886,-492,-223
-887,-468,-214
-888,-443,-201
-885,-420,-193
-879,-405,-181
-874,-403,-171
-869,-409,-162
-861,-424,-149
-853,-453,-140
-844,-489,-131
-833,-532,-120
-828,-584,-115
-825,-648,-108
-822,-709,-100
-821,-757,-93
-816,-795,-83
-815,-808,-75
-813,-808,-58
-807,-792,-45
-798,-779,-33
-781,-767,-17
-765,-764,-6
-748,-765,8
-734,-775,19
-721,-789,31
-706,-808,43
-688,-845,53
-673,-873,62
-656,-888,71
-642,-882,87
-634,-846,103
-628,-795,127
-621,-738,149
-614,-668,174
-605,-601,199
-594,-537,224
-588,-475,248
-574,-430,272
-565,-387,293
-555,-358,314
-543,-335,328
-530,-324,339
-511,-329,348
-482,-344,349
-456,-368,357
-428,-408,359
-396,-451,365
-369,-495,374
-338,-518,382
-313,-524,398
-291,-520,414
-272,-510,431
-252,-503,450
-232,-496,469
-214,-483,487
-201,-477,514
-190,-472,532
-180,-466,554
-168,-465,572
-160,-468,588
-142,-490,604
-125,-499,614
-112,-492,625
-99,-500,641
-83,-500,655
-74,-488,668
-62,-474,687
-55,-451,701
-48,-435,718
-46,-411,732
-44,-376,742
-40,-359,754
-40,-331,762
-40,-319,771
-41,-303,778
-37,-300,776
-29,-295,772
-23,-297,765
-14,-304,760
-1,-304,752
9,-304,744
22,-291,734
39,-271,720
47,-249,715
58,-223,704
69,-196,695
81,-170,685
89,-141,680
96,-117,670
103,-104,665
107,-91,657
107,-90,645
106,-91,632
98,-99,621
93,-107,608
86,-111,595
84,-111,575
87,-107,560
84,-101,542
91,-96,528
102,-92,506
112,-87,488
122,-84,470
135,-79,456
146,-77,445
153,-73,434
161,-76,427
168,-75,422
170,-70,414
169,-67,413
165,-56,411
155,-45,412
148,-36,410
137,-25,413
130,-9,411
121,3,412
110,18,410
105,32,409
102,46,405
102,57,397
105,69,388
110,82,381
118,94,373
123,103,363
131,104,354
139,105,343
146,107,337
151,100,328
155,95,326
158,88,321
154,81,322
148,68,323
139,56,320
125,52,318
112,48,317
98,59,310
88,61,305
80,74,300
76,89,290
79,94,282
84,113,273
88,123,262
99,137,254
106,138,244
115,142,240
120,146,232
129,137,229
131,141,226
136,134,226
140,136,229
140,132,226
144,136,231
142,134,235
134,126,238
131,120,244
120,109,251
109,91,259
98,71,265
87,52,268
86,35,269
80,19,269
78,0,264
78,-15,258
83,-32,251
88,-46,244
97,-58,235
105,-65,228
114,-72,219
125,-75,212
133,-75,204
141,-75,198
148,-72,193
155,-67,189
161,-65,187
160,-60,183
163,-58,176
164,-52,172
166,-47,168
164,-41,161
163,-39,157
160,-31,154
157,-24,148
151,-21,147
146,-18,144
136,-11,134
129,-10,134
122,-4,131
113,0,130
98,2,124
89,7,126
81,6,119
70,6,115
57,8,112
46,9,109
36,5,106
20,3,100
4,1,93
-5,-1,88
-19,-7,82
-31,-16,70
-40,-23,64
-47,-35,56
-54,-40,49
-58,-52,38
-57,-65,32
-57,-73,24
-56,-86,16
-54,-96,11
-50,-105,4
-47,-113,2
-42,-118,-3
-36,-121,-3
-30,-120,-6
-27,-122,-8
-24,-118,-9
-16,-116,-8
-14,-110,-6
-11,-106,-7
-4,-103,-4
0,-97,-3
3,-97,-1
5,-92,1
6,-90,2
5,-92,0
11,-91,4
10,-90,1
11,-91,2
11,-90,2
15,-88,-3
19,-87,-1
24,-84,-6
28,-83,-12
32,-82,-15
39,-81,-17
45,-76,-18
47,-71,-23
55,-74,-22
58,-74,-21
62,-74,-22
69,-75,-26
72,-73,-24
77,-73,-22
77,-75,-22
80,-79,-27
81,-81,-26
81,-81,-33
81,-84,-35
80,-87,-37
78,-83,-40
78,-84,-45
77,-83,-50
78,-84,-56
83,-80,-60
88,-74,-65
94,-69,-73
100,-68,-78
108,-63,-80
113,-60,-84
118,-57,-90
122,-52,-87
128,-45,-89
128,-39,-85
129,-31,-77
130,-25,-76
127,-10,-69
121,-2,-62
121,8,-59
118,24,-53
118,39,-47
120,56,-41
125,70,-29
127,91,-26
128,117,-13
137,143,1
142,164,11
150,191,23
158,215,40
172,243,58
187,274,76
205,303,93
224,328,116
246,358,139
264,387,164
281,413,185
299,445,204
316,475,220
330,510,234
349,539,249
363,563,258
380,586,270
393,606,277
406,620,289
420,631,297
432,644,300
444,654,304
458,656,306
470,656,306
477,660,300
493,655,288
491,665,285
495,653,271
500,647,263
501,642,252
505,641,243
507,640,236
511,642,224
515,645,211
521,653,204
531,657,191
538,663,183
548,671,172
557,671,162
568,674,159
576,679,152
589,677,147
600,679,145
610,681,144
621,685,146
628,690,149
638,687,150
647,673,160
649,678,160
653,681,166
654,679,175
652,670,180
651,663,188
652,662,190
647,660,196
644,657,196
637,653,202
624,650,206
613,648,204
592,649,215
575,653,217
556,652,220
534,652,226
509,647,231
483,643,234
462,636,235
438,628,236
419,613,233
403,599,232
388,586,228
379,572,223
368,558,214
363,546,207
355,536,196
350,521,184
345,513,173
341,504,162
335,503,150
328,499,141
321,482,128
315,480,120
303,505,118
290,509,110
279,507,111
266,497,113
247,501,118
231,497,126
212,503,132
193,495,136
173,482,143
155,469,151
139,454,157
124,442,158
114,428,163
95,421,167
79,406,164
66,386,169
56,363,166
51,344,163
45,325,155
41,302,149
43,283,147
42,262,141
42,242,131
42,221,124
41,206,118
37,201,115
28,196,112
14,190,109
-3,189,107
-27,182,103
-49,182,102
-76,183,100
-99,185,92
-119,190,87
-139,192,77
-155,194,65
-166,190,60
-178,185,44
-187,177,40
-198,163,31
-207,147,22
-216,126,17
-224,100,12
-233,73,12
-249,43,10
-265,15,10
-288,-15,15
-311,-41,22
-337,-67,30
-367,-92,37
-395,-118,50
-419,-141,57
-451,-161,67
-477,-178,83
-500,-192,88
-525,-202,95
-541,-218,105
-557,-227,113
-564,-235,120
-568,-247,129
-569,-253,134
-572,-258,141
-572,-262,151
-575,-257,161
-578,-253,173
-586,-245,185
-601,-228,196
-611,-211,207
-627,-191,216
-645,-166,224
-658,-140,223
-673,-113,227
-690,-89,227
-709,-66,227
-722,-44,221
-736,-24,216
-750,-5,209
-763,5,206
-776,16,195
-791,15,192
-804,16,186
-822,12,182
-838,-4,183
-859,-13,183
-880,-28,189
-895,-37,189
-909,-48,193
-921,-56,201
-928,-69,206
-932,-79,214
-932,-90,217
-929,-93,220
-920,-97,228
-906,-102,230
-887,-101,236
-865,-103,241
-843,-107,248
-816,-104,252
-789,-103,258
-767,-91,263
-746,-70,268
-721,-49,275
-705,-24,282
-692,1,287
-686,31,294
-683,56,301
-683,79,304
-686,97,310
-689,117,312
-692,132,316
-700,146,316
-713,166,323
-725,188,327
-743,215,329
-761,239,332
-776,268,333
-791,296,331
-804,323,330
-808,349,323
-809,377,317
-808,395,310
-801,413,303
-796,427,290
-790,443,284
-789,452,278
-790,462,272
-792,468,263
-802,472,251
-817,479,243
-836,496,235
-859,514,225
-891,540,213
-926,566,201
-967,591,186
-1013,618,165
-1064,640,147
-1117,667,129
-1170,690,108
-1227,712,80
-1290,732,51
-1351,746,18
-1413,758,-13
-1478,768,-50
-1543,773,-88
-1607,774,-123
-1673,781,-158
-1733,788,-191
-1798,799,-226
-1867,810,-262
-1937,824,-306
-2009,843,-342
-2086,863,-381
-2162,888,-417
-2236,911,-454
-2313,935,-496
-2387,956,-531
-2457,978,-567
-2523,992,-598
-2592,1008,-630
-2657,1021,-655
-2719,1035,-682
-2776,1048,-705
-2827,1057,-724
-2880,1063,-743
-2927,1073,-757
-2969,1079,-770
-3005,1082,-781
-3039,1086,-792
-3072,1093,-796
-3106,1099,-799
-3138,1105,-796
-3168,1103,-785
-3203,1103,-775
-3243,1098,-762
-3279,1091,-744
-3315,1080,-726
-3348,1059,-706
-3382,1033,-682
-3407,1004,-661
-3424,972,-640
-3435,938,-627
-3437,901,-616
-3428,867,-606
-3408,832,-600
-3386,795,-592
-3360,760,-589
-3328,731,-587
-3291,696,-583
-3246,664,-581
-3200,631,-576
-3151,600,-566
-3100,566,-560
-3053,536,-549
-3001,501,-537
-2950,470,-523
-2902,439,-507
-2854,408,-490
-2808,380,-472
-2764,355,-458
-2725,327,-435
-2684,309,-416
-2641,286,-394
-2597,260,-367
-2554,241,-349
-2513,228,-329
-2471,222,-310
-2426,224,-293
-2375,224,-275
-2326,224,-261
-2278,223,-254
-2228,221,-243
-2184,218,-232
-2143,211,-222
-2103,201,-212
-2070,189,-201
-2034,174,-193
-2009,151,-188
-1981,129,-174
-1952,112,-167
-1927,89,-161
-1903,69,-157
-1872,39,-151
-1844,18,-154
-1808,-11,-158
-1770,-40,-164
-1729,-66,-176
-1687,-92,-183
-1644,-128,-193
-1604,-158,-207
-1570,-187,-221
-1535,-218,-233
-1509,-249,-244
-1492,-274,-255
-1478,-302,-261
-1466,-327,-263
-1460,-344,-271
-1451,-377,-274
-1443,-395,-281
-1433,-424,-289
-1418,-462,-302
-1405,-488,-313
-1386,-539,-323
-1372,-568,-337
-1359,-593,-348
-1349,-637,-355
-1343,-664,-367
-1340,-691,-377
-1329,-725,-386
-1318,-750,-399
-1305,-774,-411
-1287,-797,-426
-1262,-811,-443
-1247,-821,-458
-1233,-822,-465
-1229,-815,-468
-1232,-813,-465
-1237,-809,-470
-1243,-821,-465
-1255,-833,-470
-1258,-865,-468
-1265,-906,-474
-1268,-961,-476
-1273,-1017,-480
-1271,-1073,-482
-1262,-1127,-477
-1241,-1173,-473
-1211,-1217,-466
-1181,-1252,-456
-1139,-1282,-444
-1101,-1309,-436
-1050,-1336,-424
-997,-1363,-420
-941,-1385,-412
-879,-1407,-408
-820,-1428,-405
-764,-1442,-397
-703,-1453,-392
-649,-1464,-382
-599,-1463,-368
-548,-1458,-348
-505,-1454,-323
-470,-1447,-292
-438,-1430,-261
-417,-1416,-221
-403,-1403,-189
-398,-1399,-153
-404,-1395,-124
-417,-1402,-91
-442,-1419,-62
-469,-1449,-38
-501,-1486,-18
-527,-1520,0
-551,-1545,21
-572,-1574,42
-592,-1600,60
-594,-1623,81
-595,-1641,94
-589,-1653,106
-579,-1669,122
-563,-1682,137
-545,-1693,156
-537,-1704,177
-531,-1706,196
-525,-1709,221
-525,-1696,246
-524,-1672,263
-525,-1660,280
-520,-1640,300
-515,-1611,319
-503,-1583,336
-484,-1549,351
-456,-1519,367
-425,-1494,378
-399,-1467,391
-363,-1443,408
-328,-1420,424
-290,-1395,442
-250,-1370,457
-214,-1344,470
-179,-1316,489
-158,-1284,502
-142,-1247,515
-129,-1206,528
-118,-1177,536
-112,-1153,545
-105,-1140,544
-102,-1120,544
-97,-1095,541
-97,-1087,540
-92,-1075,537
-86,-1069,537
-79,-1049,539
-59,-1010,529
-73,-1005,529
-69,-1015,550
-74,-1028,567
-84,-1032,581
-99,-1050,594
-114,-1054,605
-127,-1070,618
-141,-1075,628
-158,-1081,630
-174,-1088,638
-186,-1078,642
-205,-1075,648
-218,-1058,651
-229,-1044,649
-237,-1023,649
-240,-1001,640
-245,-990,628
-249,-969,618
-251,-949,607
-255,-932,595
-264,-913,586
-275,-906,578
-287,-897,570
-302,-893,565
-319,-879,556
-334,-871,550
-341,-864,546
-346,-859,542
-341,-845,537
-330,-833,534
-315,-820,535
-292,-802,529
-262,-777,531
-229,-746,533
-197,-711,535
-170,-671,538
-154,-635,539
-147,-599,542
-144,-562,540
-141,-527,535
-133,-488,527
-117,-455,519
-104,-421,509
-79,-396,500
-45,-365,492
-8,-338,477
39,-314,468
91,-293,456
144,-271,438
204,-248,421
265,-229,402
325,-209,378
382,-187,361
429,-165,344
469,-144,333
501,-132,322
529,-119,314
555,-112,302
582,-106,294
610,-113,289
630,-118,284
651,-126,282
665,-138,278
672,-145,278
662,-151,274
639,-153,271
598,-146,261
554,-139,249
508,-130,239
468,-116,225
432,-107,207
396,-100,194
360,-94,173
323,-96,160
290,-100,145
252,-107,131
215,-110,122
180,-111,115
147,-109,107
116,-109,103
86,-107,106
54,-102,110
27,-101,121
2,-98,132
-19,-90,150
-37,-87,168
-53,-83,191
-63,-81,212
-76,-83,234
-85,-88,254
-96,-100,270
-112,-114,277
-123,-130,284
-137,-151,287
-141,-174,286
-145,-187,286
-145,-197,280
-135,-195,276
-129,-196,267
-117,-189,254
-108,-183,241
-93,-171,233
-75,-160,222
-53,-147,209
-29,-137,196
-10,-123,183
11,-109,171
25,-106,158
34,-97,152
37,-96,143
35,-98,133
34,-100,128
32,-105,125
24,-102,117
17,-109,110
9,-99,101
4,-102,91
1,-100,84
2,-98,79
0,-89,68
0,-88,64
4,-79,58
11,-74,60
13,-57,57
23,-44,56
34,-30,59
48,-20,60
60,-14,68
64,-6,75
71,-8,79
77,-18,80
87,-31,78
96,-46,78
98,-54,76
102,-64,70
113,-61,65
126,-56,55
139,-45,45
152,-33,30
159,-19,17
163,-2,6
160,21,-3
152,45,-5
143,71,-13
130,94,-20
117,108,-27
102,117,-36
87,124,-46
70,128,-56
57,133,-64
42,134,-73
29,133,-82
19,123,-88
9,110,-95
2,96,-103
2,79,-107
0,59,-108
10,51,-110
20,39,-106
34,28,-101
47,20,-94
55,20,-84
65,15,-74
69,16,-57
70,18,-34
69,20,-19
65,32,-5
60,27,5
53,11,19
41,6,31
29,7,43
15,4,60
7,7,77
-5,2,95
-16,0,113
-22,-6,131
-29,-11,146
-34,-16,159
-24,-9,171
-46,-1,182
-55,-9,188
-66,-15,201
-72,-17,204
-73,-16,206
-76,-13,205
-68,-2,207
-65,2,203
-62,19,199
-52,27,195
-42,39,190
-31,53,187
-21,59,186
-11,73,187
-1,86,184
0,100,181
4,110,178
6,114,170
6,121,162
5,129,156
11,133,146
7,140,131
7,143,116
3,148,104
2,150,96
6,149,88
8,156,77
15,164,65
17,168,61
21,170,55
25,175,52
27,170,54
32,171,53
39,181,59
47,180,67
56,178,80
68,177,92
76,174,106
81,177,125
91,182,146
96,191,167
108,201,191
114,209,211
119,216,235
123,233,263
133,243,285
134,255,312
137,267,341
141,278,370
136,292,402
126,297,433
114,317,466
99,314,498
82,336,521
60,339,548
39,360,564
20,368,579
13,398,578
-3,422,577
-8,426,582
-9,450,588
-2,465,596
6,493,608
16,517,616
28,539,631
36,566,651
40,585,667
42,607,689
36,636,707
24,663,727
5,692,746
-14,726,762
-41,758,773
-63,782,785
-84,813,784
-97,833,790
-101,866,790
-96,897,789
-87,923,783
-71,947,785
-52,975,784
-35,998,783
-25,1020,785
-20,1037,791
-13,1055,798
-18,1093,798
-63,1119,806
-81,1140,813
-106,1169,814
-127,1203,815
-144,1239,807
-167,1276,800
-186,1314,790
-200,1350,782
-215,1388,769
-222,1419,759
-235,1452,748
-246,1483,741
-253,1511,735
-260,1538,731
-264,1574,724
-270,1611,717
-277,1653,712
-289,1694,709
-306,1734,706
-328,1775,704
-350,1819,704
-376,1858,702
-405,1902,700
-442,1943,698
-487,1982,689
-535,2033,675
-586,2078,656
-632,2136,632
-674,2198,600
-708,2270,566
-740,2352,532
-767,2440,501
-794,2520,464
-828,2609,427
-862,2686,395
-906,2761,362
-958,2836,330
-1024,2905,295
-1099,2972,258
-1177,3027,222
-1262,3073,186
-1341,3108,146
-1423,3137,104
-1494,3156,63
-1556,3168,21
-1606,3175,-17
-1642,3180,-56
-1663,3181,-91
-1671,3180,-120
-1673,3180,-152
-1673,3185,-175
-1676,3201,-197
-1687,3223,-221
-1714,3250,-237
-1757,3276,-260
-1813,3303,-279
-1881,3326,-292
-1960,3342,-306
-2047,3350,-319
-2137,3354,-332
-2228,3349,-350
-2307,3336,-367
-2390,3312,-384
-2455,3282,-403
-2515,3248,-420
-2562,3207,-432
-2612,3159,-447
-2656,3108,-458
-2708,3048,-466
-2759,2988,-474
-2820,2928,-485
-2880,2868,-497
-2943,2808,-513
-3004,2749,-524
-3072,2692,-539
-3139,2639,-553
-3203,2585,-571
-3270,2538,-590
-3333,2493,-606
-3400,2454,-627
-3456,2413,-644
-3513,2375,-658
-3571,2338,-672
-3630,2296,-686
-3691,2257,-704
-3749,2209,-720
-3807,2159,-731
-3865,2106,-742
-3921,2047,-758
-3980,1985,-775
-4028,1918,-790
-4075,1854,-811
-4110,1796,-834
-4134,1739,-862
-4155,1687,-888
-4169,1637,-917
-4177,1593,-950
-4181,1549,-984
-4187,1506,-1017
-4189,1466,-1051
-4188,1428,-1084
-4186,1390,-1115
-4185,1353,-1144
-4183,1316,-1170
-4179,1273,-1192
-4172,1228,-1210
-4172,1180,-1221
-4169,1130,-1236
-4170,1080,-1240
-4174,1030,-1249
-4181,979,-1256
-4192,926,-1260
-4206,877,-1263
-4222,823,-1267
-4235,764,-1271
-4259,710,-1273
-4283,655,-1277
-4318,607,-1282
-4348,562,-1287
-4375,529,-1296
-4394,499,-1300
-4409,483,-1302
-4418,475,-1306
-4427,469,-1304
-4430,462,-1306
-4426,459,-1307
-4420,455,-1306
-4409,448,-1306
-4391,438,-1309
-4373,431,-1309
-4355,416,-1311
-4337,398,-1313
-4320,371,-1311
-4310,341,-1311
-4295,314,-1310
-4286,285,-1305
-4266,269,-1298
-4252,259,-1294
-4229,254,-1289
-4204,251,-1286
-4172,254,-1278
-4139,263,-1276
-4102,266,-1270
-4070,269,-1263
-4044,276,-1250
-4014,280,-1243
-3980,284,-1233
-3936,287,-1220
-3895,288,-1206
-3844,287,-1201
-3787,290,-1189
-3723,292,-1175
-3667,289,-1155
-3614,288,-1129
-3573,280,-1103
-3542,272,-1070
-3525,262,-1034
-3514,250,-1002
-3508,231,-965
-3505,220,-935
-3499,210,-912
-3494,201,-894
-3485,195,-882
-3474,193,-875
-3467,193,-872
-3456,195,-869
-3457,201,-868
-3457,206,-868
-3457,213,-870
-3461,210,-871
-3458,206,-873
-3449,202,-876
-3432,200,-887
-3399,192,-897
-3358,185,-912
-3294,173,-935
-3220,162,-957
-3138,153,-971
-3048,144,-993
-2953,135,-1007
-2860,132,-1019
-2768,127,-1024
-2679,128,-1021
-2593,130,-1009
-2519,134,-991
-2457,139,-964
-2405,145,-930
-2370,153,-890
-2347,162,-844
-2333,171,-791
-2337,185,-736
-2343,201,-679
-2351,221,-623
-2365,246,-569
-2372,271,-518
-2375,294,-469
-2372,317,-431
-2364,338,-397
-2340,352,-365
-2307,358,-341
-2262,360,-325
-2209,354,-311
-2151,340,-300
-2095,318,-287
-2040,297,-267
-1989,277,-246
-1939,261,-224
-1893,248,-193
-1844,237,-165
-1802,225,-131
-1756,215,-103
-1712,208,-73
-1668,201,-40
-1622,198,-16
-1579,198,7
-1534,196,27
-1494,200,46
-1453,198,62
-1415,196,76
-1368,190,90
-1329,184,102
-1287,174,111
-1244,162,127
-1203,153,138
-1162,142,154
-1129,141,171
-1099,135,186
-1072,135,201
-1047,135,217
-1021,130,232
-995,119,248
-970,107,265
-945,80,284
-917,53,301
-885,19,321
-852,-15,341
-818,-50,360
-784,-77,380
-754,-98,407
-730,-121,426
-705,-137,445
-684,-144,467
-665,-144,485
-654,-135,501
-648,-129,511
-655,-114,520
-674,-102,529
-700,-95,532
-732,-88,529
-761,-89,522
-794,-92,510
-820,-104,495
-845,-113,476
-868,-121,454
-880,-131,431
-896,-137,409
-911,-138,383
-921,-138,362
-932,-134,337
-942,-129,308
-952,-120,275
-965,-106,237
-977,-88,193
-994,-68,148
-1018,-50,99
-1042,-39,45
-1075,-29,-10
-1111,-24,-68
-1155,-25,-130
-1209,-29,-198
-1269,-38,-274
-1334,-53,-344
-1408,-72,-421
-1486,-95,-493
-1568,-126,-570
-1650,-166,-644
-1737,-208,-710
-1828,-254,-778
-1913,-303,-841
-1994,-347,-904
-2070,-380,-959
-2146,-404,-1016
-2208,-423,-1067
-2258,-431,-1117
-2308,-438,-1159
-2345,-437,-1195
-2383,-431,-1227
-2410,-419,-1254
-2436,-404,-1280
-2459,-385,-1295
-2479,-369,-1313
-2499,-351,-1322
-2519,-333,-1327
-2538,-324,-1324
-2555,-320,-1313
-2570,-318,-1303
-2581,-320,-1287
-2593,-323,-1265
-2598,-326,-1234
-2604,-323,-1195
-2613,-299,-1160
-2616,-274,-1120
-2622,-244,-1084
-2626,-208,-1042
-2627,-171,-1006
-2630,-136,-967
-2629,-101,-938
-2621,-64,-912
-2612,-27,-886
-2598,0,-869
-2568,8,-851
-2526,7,-831
-2483,-4,-812
-2428,-25,-788
-2373,-50,-761
-2314,-66,-734
-2254,-82,-708
-2190,-98,-677
-2129,-115,-642
-2074,-128,-611
-2026,-134,-579
-1984,-134,-549
-1944,-130,-520
-1907,-128,-491
-1872,-118,-464
-1837,-110,-440
-1802,-105,-414
-1767,-107,-389
-1724,-114,-364
-1677,-121,-341
-1630,-121,-320
-1580,-123,-300
-1531,-116,-280
-1492,-111,-254
-1453,-99,-220
-1419,-87,-186
-1390,-61,-145
-1363,-29,-118
-1336,7,-95
-1312,45,-79
-1291,81,-64
-1267,116,-49
-1246,150,-46
-1221,176,-39
-1198,192,-40
-1173,196,-40
-1140,186,-40
-1109,173,-40
-1073,150,-42
-1035,118,-43
-997,95,-47
-957,75,-46
-921,59,-45
-888,54,-42
-849,58,-44
-817,63,-45
-783,79,-50
-748,97,-48
-714,121,-49
-684,146,-51
-650,178,-55
-615,207,-49
-582,233,-44
-540,261,-50
-501,291,-52
-457,316,-55
-407,331,-60
-353,345,-67
-297,351,-76
-237,358,-81
-173,359,-83
-115,364,-84
-66,371,-83
-22,374,-76
9,378,-69
33,380,-60
45,372,-44
57,371,-27
58,360,-11
60,358,4
56,355,20
47,341,38
40,329,50
34,307,65
33,280,74
46,239,86
55,204,93
62,177,97
76,142,102
98,106,108
124,72,114
152,48,120
185,23,131
226,6,145
271,-13,163
320,-31,185
372,-42,208
428,-53,233
495,-58,262
563,-58,293
636,-57,323
709,-45,356
785,-29,384
863,-15,414
942,4,442
1015,29,465
1094,54,497
1167,77,521
1238,101,551
1305,125,571
1363,154,591
1417,181,601
1458,216,607
1495,253,602
1521,295,597
1541,338,590
1548,383,580
1550,420,578
1544,454,582
1517,472,584
1494,500,584
1478,525,580
1484,551,559
1436,548,576
1429,518,574
1415,488,582
1410,454,592
1408,426,600
1416,398,606
1424,368,602
1437,331,594
1458,282,577
1485,234,562
1510,212,546
1533,189,532
1557,174,514
1576,159,496
1595,150,476
1612,141,455
1630,147,434
1645,146,414
1654,160,396
1662,175,374
1666,192,353
1671,202,336
1681,217,317
1690,215,293
1700,220,278
1711,219,257
1722,223,240
1729,226,223
1735,234,211
1739,235,196
1736,242,188
1739,251,182
1733,258,173
1731,258,163
1730,256,158
1727,252,147
1725,246,137
1724,235,125
1726,220,113
1732,202,104
1743,181,92
1757,156,80
1772,130,76
1789,102,71
1810,75,66
1843,44,71
1872,15,77
1899,-7,87
1924,-21,101
1952,-32,119
1977,-38,141
2002,-42,164
2021,-45,189
2043,-48,217
2069,-55,243
2099,-60,268
2136,-57,299
2175,-71,325
2213,-83,350
2254,-104,376
2294,-117,404
2334,-126,435
2371,-124,474
2418,-114,512
2473,-89,549
2533,-59,587
2596,-21,627
2659,11,669
2719,49,713
2776,87,768
2826,119,824
2871,145,880
2907,166,934
2941,183,997
2975,203,1062
3005,218,1139
3033,236,1207
3061,260,1279
3083,290,1346
3102,327,1410
3115,371,1475
3128,412,1534
3141,459,1592
3152,499,1645
3161,535,1700
3183,564,1751
3201,589,1802
3227,605,1853
3258,614,1905
3296,619,1953
3344,616,2004
3394,617,2045
3453,611,2081
3520,604,2114
3590,600,2139
3661,589,2161
3724,581,2176
3780,575,2184
3824,575,2183
3853,578,2173
3867,579,2149
3863,587,2115
3841,592,2066
3798,596,2014
3733,596,1963
3652,588,1912
3544,567,1864
3433,530,1814
3306,487,1774
3178,436,1732
3043,375,1687
2908,314,1646
2778,249,1600
2645,191,1552
2521,142,1502
2397,94,1450
2278,49,1392
2164,7,1338
2055,-37,1282
1953,-75,1229
1848,-110,1173
1744,-141,1118
1647,-170,1064
1550,-193,1012
1464,-211,957
1384,-221,893
1307,-230,830
1234,-226,766
1165,-220,696
1099,-210,627
1035,-190,561
971,-178,492
910,-155,421
855,-136,350
806,-107,276
761,-79,203
726,-50,131
692,-20,68
664,16,-5
634,50,-65
610,84,-127
584,124,-181
564,161,-235
546,196,-285
528,236,-326
509,270,-366
486,305,-397
461,334,-423
435,366,-449
405,397,-469
371,435,-487
333,472,-504
294,516,-519
255,566,-535
219,618,-554
177,678,-571
137,747,-595
100,824,-621
67,909,-651
31,1000,-686
9,1086,-725
6,1158,-765
9,1223,-808
25,1285,-854
31,1348,-897
21,1408,-935
-15,1458,-964
-79,1497,-994
-159,1501,-1020
-240,1465,-1045
-326,1397,-1064
-407,1307,-1086
-482,1207,-1107
-555,1097,-1126
-622,982,-1148
-682,850,-1159
-742,713,-1168
-794,576,-1174
-847,442,-1168
-896,307,-1153
-945,171,-1129
-1002,41,-1094
-1057,-90,-1053
-1116,-210,-1004
-1165,-319,-961
-1208,-405,-918
-1236,-472,-885
-1251,-514,-864
-1252,-546,-848
-1243,-568,-842
-1221,-584,-840
-1192,-593,-842
-1156,-604,-850
-1117,-617,-860
-1075,-631,-873
-1039,-645,-880
-1008,-660,-890
-993,-676,-897
-988,-690,-896
-1001,-704,-895
-1027,-714,-892
-1063,-723,-887
-1110,-720,-886
-1162,-715,-881
-1230,-697,-877
-1297,-670,-877
-1371,-636,-871
-1443,-594,-872
-1508,-557,-878
-1569,-521,-886
-1619,-487,-891
-1653,-456,-901
-1683,-426,-911
-1698,-401,-920
-1708,-374,-926
-1712,-346,-938
-1715,-320,-938
-1712,-298,-939
-1709,-269,-942
-1705,-244,-939
-1703,-212,-935
-1702,-181,-932
-1698,-146,-927
-1699,-111,-920
-1702,-77,-914
-1702,-42,-911
-1707,-5,-903
-1711,28,-897
-1715,60,-887
-1720,90,-884
-1724,114,-880
-1727,134,-881
-1720,148,-884
-1713,158,-892
-1701,167,-901
-1687,172,-921
-1662,177,-938
-1629,175,-964
-1597,170,-991
-1557,160,-1015
-1521,139,-1038
-1483,115,-1065
-1451,84,-1091
-1431,47,-1118
-1418,-1,-1133
-1416,-50,-1155
-1416,-96,-1174
-1422,-129,-1192
-1438,-161,-1204
-1461,-178,-1215
-1514,-197,-1216
-1600,-216,-1206
-1713,-248,-1187
-1851,-289,-1156
-2009,-340,-1125
-2179,-405,-1096
-2350,-487,-1068
-2507,-575,-1056
-2651,-666,-1050
-2783,-760,-1054
-2909,-858,-1057
-3030,-963,-1051
-3151,-1067,-1048
-3250,-1185,-1049
-3324,-1332,-1055
-3368,-1493,-1067
-3390,-1646,-1087
-3390,-1781,-1105
-3377,-1894,-1134
-3349,-1978,-1156
-3305,-2043,-1181
-3254,-2078,-1205
-3191,-2090,-1225
-3129,-2075,-1241
-3065,-2041,-1249
-3010,-1983,-1252
-2961,-1901,-1251
-2925,-1807,-1243
-2897,-1693,-1239
-2874,-1573,-1231
-2856,-1464,-1227
-2833,-1367,-1220
-2814,-1282,-1210
-2794,-1213,-1198
-2783,-1158,-1181
-2773,-1112,-1168
-2754,-1067,-1158
-2731,-1037,-1150
-2706,-1017,-1142
-2670,-1006,-1137
-2636,-998,-1139
-2600,-984,-1135
-2562,-971,-1135
-2525,-960,-1132
-2491,-941,-1121
-2461,-922,-1107
-2439,-892,-1090
-2413,-856,-1071
-2394,-818,-1047
-2372,-774,-1021
-2356,-726,-996
-2337,-680,-970
-2323,-628,-945
-2306,-578,-921
-2290,-533,-896
-2274,-492,-873
-2258,-454,-856
-2244,-423,-844
-2230,-397,-829
-2217,-371,-817
-2208,-360,-811
-2200,-349,-799
-2196,-339,-788
-2191,-330,-780
-2182,-320,-774
-2175,-301,-765
-2162,-279,-755
-2148,-236,-744
-2136,-187,-730
-2130,-137,-710
-2123,-79,-695
-2118,-30,-678
-2108,23,-661
-2092,71,-650
-2075,113,-640
-2061,144,-632
-2044,168,-626
-2022,181,-620
-2001,186,-614
-1973,181,-610
-1944,161,-606
-1902,112,-607
-1858,53,-604
-1808,-33,-599
-1762,-136,-594
-1721,-243,-586
-1686,-347,-575
-1651,-433,-564
-1637,-521,-542
-1629,-584,-519
-1629,-639,-491
-1625,-674,-458
-1619,-692,-428
-1602,-708,-388
-1572,-718,-359
-1532,-738,-328
-1480,-772,-304
-1412,-818,-285
-1330,-879,-262
-1238,-948,-240
-1142,-1020,-217
-1046,-1085,-190
-955,-1147,-164
-865,-1195,-130
-786,-1241,-90
-719,-1275,-48
-660,-1307,0
-607,-1332,46
-568,-1350,83
-535,-1372,123
-511,-1386,148
-496,-1391,169
-485,-1391,180
-479,-1378,183
-472,-1346,174
-463,-1300,163
-449,-1238,143
-428,-1157,122
-410,-1056,94
-394,-938,77
-388,-802,60
-400,-654,55
-427,-512,55
-458,-380,64
-501,-264,78
-548,-175,97
-585,-106,116
-615,-57,129
-637,-37,147
-645,-31,155
-631,-31,166
-604,-40,174
-559,-47,184
-500,-58,188
-429,-73,190
-357,-95,196
-291,-114,194
-223,-130,190
-157,-145,182
-108,-153,181
-69,-141,181
-51,-121,185
-44,-78,181
-46,-9,182
-53,74,188
-66,172,190
-78,274,195
-85,383,205
-94,484,211
-105,573,223
-125,641,237
-146,684,242
-163,700,244
-176,692,240
-182,655,234
-188,595,224
-199,512,214
-221,415,203
-256,295,187
-296,157,164
-343,19,136
-390,-114,104
-436,-237,71
-488,-349,35
-545,-459,-1
-608,-561,-29
-677,-667,-53
-746,-777,-71
-815,-894,-85
-881,-1018,-90
-933,-1148,-83
-973,-1267,-68
-1004,-1355,-50
-1022,-1403,-31
-1039,-1417,-12
-1047,-1403,7
-1056,-1379,27
-1062,-1328,46
-1066,-1282,66
-1062,-1224,88
-1063,-1154,109
-1059,-1064,125
-1053,-954,140
-1052,-833,153
-1054,-696,164
-1060,-572,171
-1067,-435,180
-1082,-290,186
-1099,-160,185
-1120,-32,184
-1135,68,176
-1150,158,168
-1163,235,151
-1163,308,132
-1163,379,105
-1165,430,84
-1172,477,54
-1177,515,30
-1191,555,9
-1199,587,-9
-1214,618,-35
-1226,643,-53
-1237,664,-75
-1245,695,-99
-1246,731,-119
-1233,762,-141
-1205,789,-171
-1156,798,-198
-1106,802,-224
-1046,798,-244
-993,789,-258
-952,760,-261
-914,715,-255
-875,658,-259
-835,581,-263
-790,491,-268
-733,368,-268
-670,222,-273
-607,62,-272
-543,-107,-263
-482,-288,-250
-420,-467,-229
-353,-637,-209
-279,-795,-191
-201,-940,-171
-120,-1063,-149
-42,-1167,-122
31,-1247,-97
103,-1307,-69
173,-1340,-47
247,-1363,-27
317,-1366,-6
385,-1365,11
450,-1346,27
511,-1323,45
567,-1287,60
616,-1249,71
664,-1203,81
704,-1145,87
737,-1077,94
762,-1008,103
783,-918,107
798,-815,104
810,-693,102
813,-550,104
811,-390,104
793,-226,101
758,-58,102
710,91,107
642,212,122
558,303,137
469,360,155
376,391,174
274,405,193
175,403,204
87,397,217
8,390,217
-47,392,220
-82,403,210
-94,428,198
-77,471,176
-41,519,151
10,570,128
76,623,101
146,676,76
218,719,52
285,759,28
337,794,11
372,818,5
394,827,1
410,828,7
422,809,19
432,776,35
440,732,43
439,675,57
434,608,67
422,539,75
401,456,85
374,362,92
349,269,95
320,173,100
290,76,101
262,-18,107
224,-113,109
189,-205,112
152,-292,115
115,-386,114
74,-476,114
37,-575,112
-9,-679,108
-47,-779,105
-95,-870,96
-138,-947,90
-177,-1009,78
-219,-1050,66
-250,-1076,60
-277,-1089,49
-292,-1090,41
-302,-1080,34
-299,-1063,20
-293,-1038,9
-275,-1009,-4
-255,-972,-14
-232,-925,-25
-206,-870,-29
-190,-801,-37
-177,-722,-42
-171,-636,-45
-168,-534,-49
-172,-428,-56
-185,-318,-52
-199,-205,-51
-222,-95,-54
-248,14,-52
-275,114,-50
-304,209,-46
-334,295,-48
-364,370,-41
-394,438,-36
-423,490,-37
-450,529,-32
-478,561,-29
-504,581,-29
-533,598,-21
-567,609,-14
-600,616,-5
-624,624,8
-647,640,21
-665,661,24
-686,684,29
-703,703,26
-726,716,20
-746,722,12
-773,721,2
-804,716,-11
-832,702,-26
-848,680,-48
-841,632,-73
-818,574,-100
-783,507,-127
-732,426,-153
-681,341,-172
-628,261,-184
-572,186,-190
-518,112,-184
-465,33,-168
-420,-52,-152
-369,-141,-128
-311,-231,-102
-247,-328,-81
-176,-423,-60
-95,-520,-42
-10,-623,-25
84,-726,-14
185,-827,0
288,-916,15
390,-983,35
490,-1029,61
577,-1052,84
656,-1052,113
715,-1036,144
760,-1000,181
780,-951,215
789,-887,245
783,-821,281
764,-743,311
732,-663,341
697,-575,366
654,-480,387
607,-378,404
559,-269,416
508,-154,418
462,-35,413
422,85,407
389,202,397
360,306,378
340,394,361
328,475,341
321,540,315
316,597,287
313,641,266
301,667,241
288,677,220
271,676,197
254,663,174
238,638,153
231,612,131
230,590,109
236,580,89
237,579,75
245,575,64
261,571,53
280,573,42
305,580,28
326,594,14
342,614,0
352,639,-8
351,659,-14
342,675,-18
321,677,-15
292,667,-8
251,635,0
207,591,10
158,536,16
109,459,27
56,369,31
-4,255,41
-70,122,48
-133,-25,57
-195,-183,66
-252,-337,68
-302,-501,71
-347,-666,67
-388,-816,61
-420,-954,56
-457,-1062,45
-496,-1138,37
-529,-1187,28
-559,-1221,13
-581,-1240,0
-596,-1240,-13
-600,-1228,-30
-598,-1205,-46
-586,-1172,-63
-574,-1132,-79
-550,-1091,-92
-524,-1035,-108
-494,-974,-124
-458,-902,-137
-422,-826,-150
-386,-737,-163
-348,-644,-172
-316,-548,-176
-291,-445,-181
-271,-345,-179
-257,-238,-179
-247,-136,-177
-245,-39,-170
-246,47,-160
-259,128,-147
-278,204,-134
-299,272,-120
-315,338,-103
-332,390,-85
-348,440,-72
-360,482,-61
-368,514,-51
-373,552,-41
-377,594,-37
-378,634,-26
-378,674,-20
-381,715,-13
-372,739,-3
-367,764,4
-362,783,16
-349,800,21
-346,819,27
-343,835,33
-346,838,37
-356,832,39
-365,811,26
-376,777,13
-391,728,-5
-405,663,-26
-412,584,-43
-418,496,-65
-417,398,-82
-405,297,-104
-390,190,-125
-358,79,-141
-319,-40,-151
-272,-161,-160
-216,-272,-165
-158,-382,-171
-93,-477,-175
-22,-570,-174
48,-654,-167
116,-733,-158
185,-805,-142
241,-863,-125
300,-911,-104
349,-944,-84
399,-959,-57
440,-955,-33
478,-943,-3
504,-911,23
518,-863,57
517,-807,86
504,-737,120
478,-662,149
442,-576,176
407,-485,194
365,-386,213
325,-285,227
294,-174,229
268,-66,234
255,49,226
244,161,215
247,267,202
252,376,183
268,471,167
283,560,149
304,645,127
323,718,106
347,779,88
370,828,62
389,863,39
407,889,19
425,908,-2
451,922,-16
476,948,-32
497,985,-43
517,1029,-53
536,1072,-62
555,1121,-69
571,1154,-77
583,1178,-83
594,1187,-84
603,1188,-85
606,1182,-81
598,1174,-74
584,1146,-57
563,1104,-41
535,1042,-18
501,965,-2
467,881,24
431,789,44
393,689,67
351,580,87
306,471,108
259,352,127
212,231,147
164,104,165
122,-23,179
80,-150,182
47,-271,184
13,-390,184
-20,-510,178
-53,-629,175
-89,-747,171
-121,-854,168
-152,-945,165
-180,-1016,158
-201,-1066,150
-221,-1097,143
-241,-1111,125
-254,-1103,115
-264,-1079,95
-276,-1041,78
-286,-987,63
-295,-920,44
-303,-846,29
-315,-758,13
-323,-668,0
-340,-580,-12
-360,-489,-19
-385,-392,-19
-412,-294,-20
-432,-184,-25
-457,-74,-31
-475,42,-32
-486,151,-39
-492,264,-49
-493,372,-58
-487,468,-66
-479,555,-74
-473,632,-85
-464,693,-91
-445,744,-102
-428,783,-114
-407,817,-121
-381,852,-129
-355,878,-127
-329,902,-130
-310,914,-122
-296,916,-114
-289,914,-100
-290,902,-88
-297,878,-71
-307,847,-61
-323,814,-48
-339,775,-45
-357,732,-46
-368,678,-55
-379,598,-69
-390,496,-86
-388,366,-100
-382,224,-121
-364,73,-142
-338,-84,-168
-293,-231,-196
-241,-370,-219
-176,-499,-244
-98,-621,-258
-5,-727,-274
90,-820,-271
186,-890,-265
281,-941,-251
369,-984,-223
440,-1005,-185
503,-1015,-144
550,-1008,-99
600,-987,-46
635,-956,4
666,-912,62
694,-857,111
719,-795,158
742,-719,202
755,-635,239
763,-541,269
775,-447,288
781,-344,302
793,-243,304
807,-140,304
813,-35,299
814,63,291
813,160,286
804,249,280
785,325,275
761,392,271
735,453,268
702,511,268
673,562,266
641,611,261
614,657,262
578,703,258
552,742,251
523,772,245
496,801,235
478,815,224
458,829,214
447,835,202
444,841,185
440,849,172
439,858,163
435,859,154
432,858,145
417,858,137
400,840,134
375,826,123
351,788,119
328,734,112
293,676,105
253,599,103
205,524,96
157,443,94
99,346,89
45,256,87
-13,159,87
-69,56,82
-121,-47,74
-162,-144,61
-199,-248,42
-231,-348,23
-258,-444,0
-288,-553,-34
-317,-658,-73
-347,-768,-122
-374,-866,-190
-398,-956,-267
-415,-1033,-352
-435,-1105,-438
-452,-1171,-521
-475,-1223,-597
-492,-1259,-663
-504,-1278,-715
-517,-1270,-762
-526,-1258,-783
-540,-1218,-792
-544,-1173,-786
-550,-1119,-770
-555,-1056,-743
-558,-988,-706
-566,-915,-667
-565,-838,-625
-566,-748,-578
-561,-659,-531
-553,-565,-485
-551,-472,-431
-544,-383,-383
-534,-294,-335
-526,-208,-285
-513,-127,-240
-494,-58,-197
-474,5,-151
-461,56,-112
-453,104,-72
-451,139,-32
-465,162,2
-487,181,34
-517,196,66
-551,227,96
-594,264,119
-635,308,140
-674,359,156
-702,425,169
-727,496,176
-742,562,175
-750,616,174
-746,655,164
-739,682,153
-728,691,144
-708,674,134
-687,637,121
-655,583,108
-619,513,92
-586,425,72
-560,323,50
-542,208,27
-521,80,11
-502,-58,-5
-469,-193,-21
-433,-331,-40
-379,-464,-53
-323,-587,-56
-257,-697,-54
-191,-778,-27
-135,-826,32
-69,-848,118
0,-870,227
84,-913,344
179,-992,457
291,-1082,570
416,-1171,675
544,-1259,777
675,-1331,877
796,-1388,973
902,-1424,1071
992,-1431,1156
1055,-1419,1230
1105,-1379,1288
1130,-1316,1325
1137,-1238,1342
1123,-1139,1338
1099,-1019,1318
1065,-884,1279
1022,-734,1235
966,-581,1182
903,-432,1123
832,-289,1062
751,-159,996
673,-55,924
597,40,854
525,118,775
457,179,702
387,228,620
332,266,539
284,294,461
252,317,379
234,339,300
235,368,226
251,404,156
284,449,89
320,507,32
358,563,-11
391,626,-50
416,686,-78
433,750,-100
437,802,-118
434,846,-126
424,880,-136
404,897,-139
373,898,-140
328,879,-142
280,836,-138
238,771,-137
196,690,-139
151,597,-136
106,489,-136
54,372,-139
2,242,-137
-51,102,-131
-112,-45,-121
-175,-195,-112
-243,-338,-98
-314,-473,-85
-378,-599,-71
-446,-705,-62
-504,-801,-62
-553,-884,-63
-589,-951,-73
-610,-1003,-85
-619,-1042,-103
-610,-1063,-130
-585,-1071,-159
-546,-1066,-195
-505,-1042,-232
-458,-997,-270
-413,-927,-305
-369,-846,-336
-333,-749,-361
-307,-631,-372
-294,-503,-381
-292,-365,-381
-303,-225,-374
-324,-80,-365
-347,64,-351
-372,199,-342
-391,324,-331
-414,449,-327
-433,556,-325
-450,658,-318
-470,754,-319
-489,842,-318
-507,920,-324
-525,996,-326
-543,1066,-330
-564,1127,-331
-588,1180,-336
-616,1226,-339
-652,1265,-338
-694,1296,-338
-732,1316,-339
-769,1316,-333
-815,1311,-328
-853,1287,-317
-896,1252,-296
-935,1216,-277
-964,1183,-253
-989,1158,-231
-992,1131,-211
-984,1112,-191
-963,1099,-167
-933,1086,-151
-898,1078,-139
-860,1064,-128
-819,1032,-120
-782,997,-110
-737,959,-99
-693,923,-86
-649,890,-73
-602,862,-53
-563,831,-36
-521,796,-15
-480,757,4
-433,717,26
-386,666,44
-332,613,62
-267,557,79
-198,503,97
-122,451,104
-46,407,110
30,376,113
101,352,115
174,339,115
233,338,106
295,350,100
354,374,98
404,410,93
450,457,87
489,511,82
521,573,79
542,645,78
562,714,87
575,783,89
582,852,102
588,921,117
590,983,130
592,1044,145
590,1099,157
590,1150,173
583,1195,189
577,1230,209
570,1258,224
563,1277,242
559,1283,261
550,1283,278
538,1279,294
533,1267,309
525,1248,322
537,1224,324
519,1221,341
517,1196,348
518,1165,355
519,1143,361
518,1127,365
519,1116,372
522,1107,375
529,1106,370
532,1101,370
539,1091,366
548,1077,363
563,1063,354
575,1041,352
583,1017,351
600,995,348
610,981,349
619,968,348
636,960,352
656,957,353
677,955,356
695,951,361
714,949,365
729,953,371
747,952,385
763,954,396
775,949,405
779,938,423
778,916,438
770,891,452
763,860,470
757,826,489
746,802,506
737,782,522
716,773,536
694,768,552
658,760,572
613,753,585
563,737,602
510,722,616
453,694,622
392,666,621
331,626,621
274,575,610
225,516,593
185,461,566
157,400,535
144,344,490
150,303,435
151,258,371
173,201,313
207,145,251
251,89,190
298,35,128
358,-15,68
414,-63,5
474,-106,-54
535,-146,-110
594,-178,-156
647,-207,-200
694,-225,-235
728,-234,-266
749,-233,-293
760,-217,-310
764,-195,-322
761,-166,-329
750,-128,-334
736,-88,-338
720,-48,-339
701,1,-340
673,47,-344
647,87,-342
620,124,-339
585,157,-342
555,179,-337
515,197,-335
479,198,-333
440,195,-329
418,189,-324
388,173,-326
368,150,-325
353,117,-320
342,88,-318
335,60,-316
329,36,-318
318,18,-323
299,6,-327
277,0,-341
255,-3,-358
236,-7,-374
212,-2,-388
195,-3,-407
174,0,-425
163,-2,-441
151,-2,-458
140,0,-473
128,-10,-483
118,-19,-484
102,-30,-483
89,-42,-481
72,-54,-478
48,-69,-467
22,-85,-460
-4,-95,-452
-34,-103,-444
-60,-105,-442
-94,-108,-438
-118,-107,-435
-140,-102,-431
-154,-96,-433
-164,-84,-431
-172,-71,-437
-175,-53,-444
-174,-32,-455
-167,-8,-464
-156,13,-474
-141,27,-484
-124,40,-489
-111,38,-499
-92,36,-509
-68,24,-518
-50,5,-530
-32,-30,-540
-15,-75,-546
-1,-124,-550
8,-171,-557
19,-209,-558
27,-221,-566
35,-225,-568
41,-203,-574
53,-184,-581
64,-164,-591
81,-152,-598
91,-139,-607
107,-124,-608
120,-118,-608
136,-122,-607
140,-125,-603
150,-139,-594
156,-150,-585
159,-169,-569
163,-187,-557
163,-210,-535
156,-231,-510
155,-252,-487
154,-271,-461
154,-283,-445
157,-293,-426
162,-296,-413
170,-293,-400
186,-293,-390
207,-301,-380
227,-304,-381
256,-311,-379
287,-313,-380
315,-317,-375
347,-327,-372
373,-342,-371
396,-355,-365
419,-372,-358
433,-390,-345
443,-409,-330
446,-430,-312
439,-453,-289
427,-471,-264
411,-493,-236
389,-508,-205
359,-523,-177
334,-537,-139
306,-553,-112
281,-560,-84
255,-567,-56
231,-572,-35
207,-574,-16
188,-577,-5
175,-584,8
163,-590,13
153,-593,22
143,-593,29
132,-595,37
127,-600,41
124,-610,45
126,-617,51
129,-628,51
133,-637,55
139,-644,61
143,-649,64
149,-655,65
158,-657,69
164,-662,67
165,-658,68
166,-655,64
166,-644,58
163,-632,54
164,-624,48
166,-607,42
172,-595,41
176,-576,34
187,-556,36
197,-535,35
212,-507,30
222,-485,33
223,-457,31
229,-436,32
231,-421,34
225,-414,33
224,-411,33
224,-409,32
223,-417,31
223,-421,28
220,-425,24
221,-420,17
232,-412,13
244,-402,2
272,-391,5
304,-379,1
339,-367,3
376,-354,4
413,-343,9
444,-333,12
472,-323,22
490,-306,32
492,-290,49
487,-272,62
460,-247,75
431,-215,91
397,-178,97
368,-139,109
342,-103,113
324,-74,110
324,-53,101
332,-41,87
345,-34,72
366,-33,58
384,-30,45
393,-31,34
397,-34,25
387,-34,19
370,-37,14
348,-42,17
323,-51,15
287,-57,14
252,-61,12
217,-54,8
186,-47,1
159,-32,-8
132,-13,-32
118,13,-52
109,42,-84
98,81,-113
97,117,-147
91,142,-182
85,164,-216
79,186,-241
76,201,-269
76,216,-292
74,235,-304
75,253,-314
74,278,-323
70,301,-336
75,336,-345
75,372,-354
71,412,-366
65,450,-380
64,485,-389
63,520,-406
61,546,-420
62,580,-427
66,615,-436
74,653,-443
85,694,-448
100,744,-451
114,799,-445
118,854,-439
119,907,-425
120,956,-408
110,1000,-394
104,1040,-380
99,1073,-366
90,1099,-358
83,1121,-352
81,1129,-350
77,1131,-349
73,1134,-349
71,1140,-348
63,1148,-352
55,1158,-356
37,1173,-357
14,1182,-353
-6,1191,-351
-31,1194,-348
-53,1192,-346
-68,1188,-344
-87,1180,-341
-100,1165,-341
-110,1140,-336
-117,1106,-332
-120,1064,-329
-109,1024,-326
-89,1005,-321
-68,1011,-307
-42,1034,-288
-16,1071,-260
18,1113,-232
58,1162,-203
101,1210,-169
147,1253,-133
196,1300,-93
248,1337,-55
298,1370,-16
358,1399,22
419,1413,57
490,1423,84
569,1420,114
653,1412,144
742,1396,179
832,1387,217
913,1377,253
995,1373,291
1082,1375,326
1166,1382,359
1250,1392,394
1333,1395,433
1413,1394,468
1495,1389,507
1582,1371,545
1669,1354,582
1751,1323,617
1840,1290,656
1918,1252,693
1997,1213,736
2063,1168,779
2121,1123,822
2160,1071,865
2194,1019,908
2211,966,942
2222,913,972
2228,865,998
2231,823,1019
2242,788,1032
2245,755,1042
2255,724,1046
2260,695,1040
2262,665,1033
2258,634,1025
2251,603,1011
2233,579,997
2208,558,979
2166,544,958
2114,541,940
2054,542,909
1982,553,876
1909,574,827
1846,603,768
1788,643,694
1742,691,604
1703,739,510
1672,793,409
1645,836,309
1627,872,206
1607,900,104
1583,930,4
1554,958,-89
1514,989,-179
1467,1015,-260
1410,1053,-337
1346,1089,-401
1274,1128,-461
1193,1175,-510
1109,1215,-556
1026,1249,-599
954,1275,-642
889,1288,-689
834,1288,-736
790,1277,-788
762,1258,-838
742,1231,-885
730,1209,-924
730,1187,-959
723,1173,-991
717,1157,-1016
708,1149,-1041
695,1137,-1052
666,1133,-1061
629,1132,-1058
580,1131,-1050
526,1128,-1038
468,1125,-1026
403,1121,-1013
342,1121,-1009
292,1121,-1003
245,1117,-1008
206,1116,-1012
168,1127,-1017
130,1144,-1022
76,1173,-1021
23,1207,-1025
-41,1240,-1032
-97,1263,-1041
-156,1280,-1054
-219,1283,-1064
-281,1271,-1073
-340,1240,-1087
-372,1197,-1115
-356,1148,-1161
-267,1097,-1240
-90,1066,-1364
141,1054,-1503
350,1081,-1617
501,1136,-1690
596,1211,-1724
634,1284,-1719
618,1342,-1682
537,1375,-1623
399,1395,-1554
229,1399,-1486
33,1390,-1419
-184,1364,-1349
-405,1307,-1286
-610,1232,-1230
-781,1134,-1183
-916,1011,-1150
-1006,885,-1117
-1059,749,-1091
-1086,619,-1065
-1092,500,-1042
-1088,377,-1015
-1072,262,-988
-1051,164,-960
-1032,73,-923
-1019,8,-879
-1016,-47,-828
-1017,-100,-775
-1015,-148,-712
-1015,-202,-640
-1022,-255,-569
-1027,-318,-491
-1039,-389,-417
-1053,-463,-347
-1059,-540,-281
-1065,-612,-220
-1065,-684,-164
-1055,-742,-123
-1036,-789,-89
-1004,-825,-57
-964,-846,-30
-913,-850,-7
-854,-845,8
-791,-827,32
-727,-799,53
-664,-768,77
-607,-740,99
-559,-713,126
-524,-698,152
-489,-690,182
-465,-701,218
-442,-712,254
-422,-736,292
-407,-763,330
-391,-799,361
-381,-829,393
-385,-856,419
-394,-873,446
-405,-877,467
-423,-864,494
-453,-831,521
-486,-792,553
-526,-750,588
-570,-715,623
-617,-695,653
-659,-683,681
-702,-687,703
-739,-699,717
-760,-721,719
-773,-753,718
-775,-780,714
-774,-809,710
-761,-837,704
-738,-861,700
-711,-883,711
-683,-901,726
-655,-911,743
-631,-922,771
-609,-931,810
-601,-939,853
-601,-945,902
-617,-960,964
-644,-961,1023
-681,-966,1079
-718,-967,1120
-752,-978,1154
-782,-997,1175
-810,-1017,1185
-833,-1040,1182
-854,-1065,1182
-872,-1087,1179
-882,-1109,1170
-899,-1119,1161
-916,-1121,1160
-933,-1117,1152
-950,-1113,1150
-961,-1105,1144
-967,-1099,1141
-975,-1097,1136
-979,-1103,1127
-981,-1110,1117
-974,-1117,1112
-974,-1124,1113
-982,-1137,1106
-996,-1154,1103
-1006,-1175,1097
-1029,-1193,1091
-1054,-1212,1093
-1086,-1227,1103
-1125,-1239,1107
-1168,-1247,1119
-1215,-1252,1133
-1259,-1255,1149
-1300,-1248,1160
-1321,-1228,1166
-1327,-1206,1164
-1323,-1176,1156
-1308,-1155,1147
-1283,-1134,1132
-1250,-1112,1112
-1208,-1097,1092
-1153,-1085,1072
-1091,-1074,1057
-1031,-1064,1046
-979,-1057,1052
-931,-1058,1071
-900,-1058,1104
-882,-1062,1148
-883,-1061,1205
-897,-1057,1268
-925,-1052,1329
-960,-1039,1379
-997,-1035,1406
-1024,-1025,1425
-1047,-1021,1427
-1049,-1024,1425
-1036,-1031,1413
-1000,-1044,1395
-947,-1052,1378
-892,-1058,1357
-832,-1064,1340
-779,-1071,1326
-732,-1071,1313
-703,-1063,1300
-695,-1037,1273
-695,-994,1237
-696,-932,1192
-710,-856,1148
-728,-794,1109
-741,-750,1063
-744,-736,1021
-721,-752,979
-675,-799,950
-602,-887,943
-495,-999,941
-343,-1120,938
-156,-1228,917
45,-1301,873
215,-1338,816
331,-1348,748
389,-1325,666
398,-1265,576
372,-1169,478
325,-1030,381
262,-851,273
206,-651,163
164,-435,46
147,-210,-72
157,25,-194
196,257,-317
262,479,-444
340,685,-566
438,879,-684
545,1056,-801
658,1227,-909
772,1386,-1017
885,1531,-1118
990,1672,-1210
1089,1792,-1295
1179,1895,-1366
1250,1977,-1426
1298,2041,-1476
1332,2083,-1514
1338,2109,-1538
1323,2102,-1551
1282,2085,-1548
1225,2053,-1527
1167,2008,-1492
1101,1964,-1456
1040,1898,-1415
988,1839,-1370
943,1788,-1326
886,1732,-1270
830,1675,-1214
773,1621,-1155
711,1574,-1087
653,1528,-1020
589,1482,-949
518,1442,-878
440,1409,-817
355,1371,-756
267,1330,-703
178,1291,-662
96,1245,-624
32,1197,-597
-24,1150,-583
-65,1105,-577
-103,1039,-575
-144,1037,-578
-195,995,-585
-259,1000,-588
-339,1038,-605
-416,1041,-623
-498,1060,-642
-575,1092,-673
-644,1141,-717
-699,1202,-768
-729,1266,-830
-736,1337,-900
-716,1411,-973
-678,1483,-1046
-632,1540,-1113
-582,1580,-1177
-538,1628,-1226
-502,1672,-1267
-480,1708,-1301
-464,1743,-1331
-450,1767,-1362
-442,1786,-1392
-439,1813,-1423
-430,1851,-1457
-404,1893,-1491
-360,1943,-1523
-308,1999,-1548
-241,2056,-1574
-172,2128,-1598
-100,2210,-1619
-43,2305,-1641
-2,2414,-1658
24,2531,-1679
37,2644,-1708
44,2750,-1742
47,2849,-1785
56,2938,-1832
74,3021,-1887
116,3092,-1938
180,3151,-1974
246,3172,-1994
297,3143,-1990
319,3013,-1945
300,2788,-1901
265,2575,-1895
277,2473,-1949
373,2479,-2067
526,2599,-2238
692,2843,-2431
859,3181,-2630
1002,3604,-2832
1105,4076,-3014
1183,4557,-3172
1272,5024,-3308
1358,5499,-3421
1441,5937,-3508
1371,6311,-3531
1231,6609,-3498
1076,6810,-3412
915,6919,-3291
756,6977,-3124
590,6993,-2918
422,6874,-2678
257,6551,-2418
118,6236,-2162
19,5990,-1916
-67,5658,-1679
-144,5272,-1457
-223,4921,-1263
-285,4522,-1097
-323,4176,-966
-348,3896,-871
-364,3674,-805
-392,3484,-756
-438,3349,-708
-489,3266,-664
-515,3208,-623
-509,3140,-584
-495,3056,-535
-487,2946,-481
-477,2812,-438
-454,2657,-404
-438,2492,-377
-420,2328,-366
-399,2179,-357
-382,2054,-347
-357,1945,-333
-326,1858,-313
-295,1797,-289
-259,1766,-258
-213,1749,-226
-183,1746,-184
-173,1744,-136
-169,1754,-88
-166,1761,-45
-164,1763,-13
-172,1758,6
-175,1741,17
-184,1712,17
-191,1675,16
-198,1618,10
-214,1557,-2
-236,1496,-12
-253,1435,-21
-273,1383,-27
-297,1334,-30
-323,1294,-25
-349,1262,-23
-362,1239,-23
-370,1229,-27
-377,1221,-31
-386,1217,-32
-409,1213,-31
-432,1202,-31
-456,1188,-32
-482,1182,-34
-502,1176,-44
-516,1166,-53
-530,1152,-69
-555,1125,-86
-584,1086,-102
-599,1036,-117
-613,964,-132
-627,893,-151
-643,824,-169
-656,761,-188
-663,752,-210
-687,783,-231
-710,683,-248
-725,610,-262
-740,584,-282
-737,570,-300
-737,560,-312
-729,545,-315
-721,523,-315
-709,500,-306
-694,479,-294
-673,444,-280
-642,415,-268
-616,384,-252
-593,357,-240
-577,327,-232
-556,301,-225
-538,286,-226
-524,278,-227
-504,275,-233
-482,278,-238
-461,288,-250
-449,291,-253
-449,283,-253
-442,266,-255
-444,254,-262
-443,244,-266
-446,228,-266
-459,217,-271
-472,213,-268
-481,200,-273
-478,197,-280
-470,199,-292
-456,199,-301
-439,208,-315
-420,201,-320
-404,201,-329
-387,189,-330
-377,176,-328
-368,158,-321
-362,138,-315
-354,132,-309
-339,130,-303
-320,135,-301
-295,133,-305
-262,140,-310
-228,146,-316
-194,160,-324
-157,166,-324
-128,162,-323
-100,149,-312
-75,121,-291
-46,57,-253
-12,-39,-202
24,-172,-137
50,-309,-87
63,-420,-64
62,-478,-64
53,-493,-70
34,-482,-73
14,-444,-85
2,-392,-102
-7,-330,-123
-15,-265,-142
-21,-203,-160
-29,-147,-171
-34,-108,-173
-38,-93,-165
-34,-105,-151
-34,-132,-137
-34,-179,-122
-42,-225,-111
-43,-270,-104
-45,-312,-94
-46,-343,-82
-44,-373,-74
-36,-390,-64
-26,-404,-59
-9,-405,-62
9,-397,-57
30,-381,-63
50,-358,-60
65,-328,-52
74,-307,-43
77,-292,-30
72,-272,-15
63,-263,-8
56,-262,-1
61,-268,6
65,-277,13
76,-285,16
89,-291,19
101,-293,24
102,-297,26
86,-304,27
68,-315,30
40,-339,26
10,-372,15
-18,-404,-2
-39,-433,-30
-48,-452,-65
-56,-453,-103
-63,-438,-146
-65,-413,-187
-70,-383,-225
-76,-345,-262
-88,-311,-296
-105,-284,-324
-132,-259,-355
-161,-254,-378
-193,-244,-411
-227,-238,-435
-253,-236,-474
-259,-249,-519
-251,-262,-564
-240,-273,-606
-229,-280,-642
-217,-286,-666
-197,-300,-689
-184,-319,-697
-174,-340,-694
-164,-360,-682
-156,-387,-664
-137,-415,-649
-114,-447,-632
-88,-474,-613
-61,-500,-589
-35,-522,-566
-14,-533,-535
4,-539,-502
16,-537,-455
22,-529,-408
25,-509,-358
28,-476,-310
30,-437,-262
36,-391,-217
46,-340,-181
65,-277,-144
84,-208,-116
104,-138,-91
117,-62,-64
126,15,-42
132,93,-20
131,164,-7
126,226,4
122,289,14
110,349,18
100,397,23
88,440,23
73,482,26
61,520,23
50,559,21
44,591,18
37,615,18
38,631,20
50,653,21
75,678,30
111,707,55
159,730,92
226,743,155
317,726,249
436,634,388
566,440,550
655,181,681
685,-13,742
688,-102,765
673,-128,766
644,-102,747
610,-45,715
569,38,674
527,141,620
477,247,569
415,363,512
349,467,458
284,567,404
229,645,355
179,686,322
142,689,302
123,638,302
116,541,312
117,421,316
110,315,298
94,239,266
81,195,230
75,171,200
70,161,176
69,149,161
81,134,150
92,111,143
103,81,140
111,54,143
112,29,134
110,8,143
104,-8,145
95,-26,147
82,-37,149
65,-50,149
43,-55,141
23,-49,129
-1,-49,109
-30,-47,80
-61,-55,52
-98,-67,17
-136,-84,-18
-175,-107,-60
-216,-138,-101
-255,-172,-142
-299,-205,-178
-338,-231,-207
-372,-251,-229
-395,-250,-247
-411,-225,-252
-413,-187,-259
-405,-148,-256
-390,-113,-254
-359,-87,-244
-337,-57,-240
-313,-19,-227
-286,18,-210
-267,49,-196
-247,64,-177
-221,73,-158
-193,70,-140
-167,53,-119
-141,41,-99
-116,46,-83
-88,70,-66
-59,112,-54
-25,156,-50
25,210,-51
86,271,-62
153,336,-83
225,405,-111
310,495,-141
413,601,-169
534,696,-197
673,769,-216
811,809,-231
919,799,-240
977,741,-244
985,644,-248
946,544,-268
866,463,-287
769,412,-301
666,380,-312
566,353,-319
477,322,-325
399,298,-323
333,272,-323
288,248,-318
259,228,-308
251,209,-302
246,183,-288
236,147,-273
212,128,-252
169,127,-224
117,118,-194
67,104,-166
38,94,-134
23,79,-108
16,53,-71
15,19,-38
18,-5,-10
32,-26,12
48,-35,26
66,-39,38
81,-43,45
93,-36,48
99,-24,44
98,-8,47
85,7,53
71,9,67
49,13,73
31,15,83
16,9,92
1,1,100
-16,-15,118
-42,-37,134
-66,-58,156
-96,-71,177
-129,-85,201
-156,-90,220
-182,-97,241
-201,-103,254
-213,-98,264
-219,-99,263
-220,-94,260
-221,-91,253
-225,-87,248
-232,-84,241
-244,-83,237
-258,-82,231
-275,-88,225
-291,-94,220
-304,-106,216
-313,-126,211
-318,-147,209
-320,-166,202
-320,-188,196
-310,-208,188
-288,-228,176
-257,-252,161
-220,-279,147
-180,-303,133
-145,-320,123
-112,-328,122
-85,-337,128
-57,-344,137
-32,-342,146
-5,-329,145
16,-310,140
37,-282,133
55,-252,121
71,-231,110
78,-213,105
73,-198,96
63,-191,91
52,-184,78
39,-180,57
31,-175,38
16,-164,14
-8,-157,-7
-40,-142,-25
-91,-124,-35
-150,-106,-39
-215,-87,-39
-276,-71,-37
-328,-58,-34
-369,-47,-30
-401,-34,-26
-417,-33,-19
-417,-34,-6
-408,-46,3
-385,-60,13
-352,-81,25
-308,-97,33
-252,-129,42
-197,-155,49
-139,-173,53
-77,-191,52
-18,-198,56
41,-203,51
90,-197,52
130,-198,49
163,-200,45
186,-190,41
200,-183,33
206,-174,21
206,-156,12
203,-145,1
192,-133,-14
178,-120,-26
163,-112,-36
145,-111,-42
126,-102,-52
103,-95,-61
86,-93,-68
71,-87,-72
59,-76,-79
50,-75,-84
46,-69,-84
42,-61,-84
44,-56,-78
46,-55,-76
51,-53,-70
60,-53,-65
67,-52,-60
78,-43,-61
91,-38,-56
103,-35,-54
111,-28,-49
108,-16,-45
109,-11,-44
102,3,-33
92,23,-26
77,38,-16
58,50,-6
38,72,1
16,88,12
-7,105,24
-36,120,39
-58,143,52
-84,155,69
-106,166,82
-128,190,92
-147,203,108
-157,215,116
-167,231,124
-160,222,122
-147,221,117
-133,232,113
-116,212,105
-100,205,98
-85,209,86
-72,180,75
-61,180,60
-55,168,48
-45,149,36
-40,138,22
-34,112,19
-23,92,18
-13,66,21
-7,36,26
-3,5,37
-1,-24,39
1,-54,45
5,-79,48
5,-103,49
0,-131,49
-4,-159,50
-10,-187,47
-13,-217,42
-24,-246,34
-35,-271,22
-52,-287,12
-74,-300,-5
-98,-302,-27
-124,-302,-44
-151,-292,-61
-181,-279,-80
-216,-262,-94
-252,-240,-115
-290,-223,-125
-329,-210,-136
-358,-192,-147
-391,-184,-148
-412,-177,-154
-424,-173,-153
-428,-173,-155
-431,-167,-153
-427,-169,-149
-420,-168,-140
-404,-163,-132
-388,-160,-124
-360,-158,-113
-333,-154,-103
-302,-147,-92
-269,-137,-81
-234,-125,-71
-195,-113,-66
-152,-97,-57
-108,-87,-53
-58,-71,-46
-15,-62,-38
33,-49,-32
84,-42,-28
133,-30,-20
178,-22,-24
225,-14,-21
265,-8,-13
300,-8,-7
333,-5,-1
361,-2,3
379,0,11
400,7,18
415,12,22
430,18,30
440,25,39
451,27,49
458,31,58
467,30,69
469,37,75
477,38,82
481,41,82
487,44,85
487,43,83
488,40,82
480,36,79
467,27,78
452,20,71
439,9,65
425,0,57
408,-6,47
394,-12,38
377,-20,31
360,-25,26
344,-35,17
325,-39,12
310,-44,6
292,-48,4
272,-52,-5
256,-45,-6
237,-43,-10
217,-35,-12
199,-26,-12
179,-19,-16
158,-13,-13
139,-9,-17
115,-6,-17
93,-3,-21
72,7,-25
53,16,-22
29,20,-23
6,23,-18
-16,29,-15
-34,24,-15
-48,20,-11
-65,11,-8
-80,5,-1
-90,-2,6
-101,-4,10
-113,0,12
-120,1,12
-131,3,11
-140,10,12
-145,13,10
-149,15,4
-153,5,3
-154,-2,3
-156,-9,2
-159,-9,5
-160,-12,8
-155,-7,11
-153,2,20
-152,6,28
-143,18,41
-133,30,51
-124,36,54
-108,47,55
-92,60,52
-73,68,50
-56,84,47
-41,96,43
-26,100,42
-13,106,34
-5,102,33
0,95,27
7,87,18
10,60,14
13,46,7
20,31,1
19,17,-9
21,12,-24
22,-7,-33
22,-11,-43
21,-5,-54
19,-19,-65
15,-18,-73
14,-19,-84
9,-23,-96
7,-20,-103
5,-35,-107
2,-31,-111
2,-32,-117
0,-46,-114
-3,-45,-119
0,-52,-117
-4,-55,-122
-6,-57,-119
-6,-62,-112
-9,-62,-105
-8,-67,-99
-7,-62,-95
-4,-61,-89
-2,-54,-84
4,-49,-77
6,-35,-73
13,-33,-67
20,-24,-64
26,-27,-55
35,-20,-53
40,-23,-46
45,-18,-39
54,-36,-19
58,-29,-17
66,-43,-19
68,-36,-22
66,-36,-26
68,-32,-31
66,-27,-35
66,-23,-35
64,-11,-37
60,-11,-40
53,-2,-40
48,5,-38
40,14,-27
30,18,-15
24,24,0
20,31,16
23,35,34
24,40,49
27,38,62
37,31,69
45,16,75
51,6,77
58,-9,79
68,-17,72
76,-26,76
83,-35,66
87,-42,58
82,-41,47
83,-44,40
77,-45,31
72,-46,21
71,-39,15
67,-31,6
61,-26,3
60,-15,2
57,-9,-2
49,1,-3
44,10,0
39,15,3
36,21,2
27,23,4
22,23,8
17,25,10
14,22,13
9,18,14
9,17,16
2,16,17
-1,14,14
-8,11,16
-17,13,17
-25,10,16
-34,9,14
-37,10,15
-41,9,14
-42,7,14
-43,13,11
-37,10,13
-38,13,11
-32,13,8
-28,18,6
-24,18,6
-20,23,5
-12,29,7
-8,36,10
-6,42,14
-5,42,14
-5,46,11
-4,47,13
-10,50,6
-11,53,2
-16,51,-5
-23,47,-12
-25,38,-20
-28,33,-17
-28,25,-10
-27,23,-2
-22,14,11
-13,6,18
-5,-1,29
7,-2,29
19,-2,26
26,4,24
37,14,15
40,25,10
42,30,2
48,38,-2
46,43,-11
39,44,-15
33,47,-17
20,44,-15
10,43,-12
-2,44,-9
-9,41,-9
-15,36,-4
-22,33,-2
-29,33,-2
-33,27,-1
-36,22,0
-36,17,1
-35,13,2
-29,8,0
-26,7,-1
-24,6,-3
-17,4,-2
-14,4,-6
-4,5,-11
-3,9,-12
2,11,-14
9,17,-18
10,22,-17
13,26,-22
13,30,-19
14,35,-18
14,36,-14
14,31,-13
15,26,-5
15,24,-6
21,22,-4
18,17,-2
23,13,-4
25,9,-2
31,6,0
36,2,-2
42,4,-7
50,6,-10
53,9,-8
58,14,-14
64,15,-15
70,14,-19
71,21,-22
77,21,-26
78,19,-27
80,19,-22
79,18,-20
77,18,-16
76,14,-13
75,10,-10
71,12,-11
69,7,-2
62,8,-4
63,2,1
59,1,3
54,-2,8
53,-10,8
50,-10,10
48,-14,10
47,-15,10
47,-16,13
45,-17,13
45,-12,15
41,-13,11
39,-7,8
36,-4,8
32,3,4
29,3,4
28,5,3
26,6,2
25,3,6
22,4,5
20,2,2
19,0,1
18,-1,-4
13,-1,-3
10,-3,-6
7,-6,-4
5,-9,-6
0,-6,-5
-4,-8,2
-7,-7,1
-7,-9,6
-11,-5,4
-13,-5,5
-13,-4,5
-15,-3,7
-11,0,4
-11,4,3
-9,6,4
-7,7,1
-4,11,3
1,5,4
6,4,3
6,3,2
10,-1,2
9,0,1
13,-2,0
12,-4,0
15,-6,-2
16,-9,-6
14,-11,-9
17,-9,-6
15,-11,-5
12,-14,-6
13,-17,-6
15,-18,-3
14,-13,-4
14,-11,-7
13,-5,-5
13,-4,-3
8,-1,-4
8,2,-2
4,4,-1
-1,5,2
-5,4,8
-8,9,11
-11,9,12
-9,12,13
-1,12,9
6,15,9
12,16,4
23,15,0
29,11,-2
35,11,-1
36,13,-5
36,7,-2
32,2,-1
27,0,-2
18,-3,-2
12,-5,-3
5,-7,-2
-1,-7,0
-4,-8,1
-10,-4,-2
-11,0,1
-14,0,-1
-15,5,1
-16,2,0
-15,4,1
-13,4,2
-12,3,3
-10,6,0
-9,4,3
-4,2,5
1,0,6
3,2,6
7,-1,7
11,-1,7
14,-1,3
15,-3,0
16,-6,-1
18,-5,-1
21,-6,-1
20,-3,0
15,-1,-1
14,0,-3
9,0,1
4,2,3
1,1,4
3,1,4
-2,1,8
-5,7,4
-3,5,8
-4,7,6
-1,10,6
1,11,6
6,14,5
11,16,5
13,13,7
17,13,7
20,10,7
20,6,4
20,1,4
19,-1,0
18,0,-5
15,-3,0
14,-2,-2
11,-7,-1
10,-5,-2
8,-6,-4
9,-5,-1
7,-2,-2
8,-1,0
14,1,-2
13,3,1
13,5,0
16,5,2
15,7,3
15,7,3
18,6,4
18,7,5
16,3,2
17,3,1
18,1,1
19,-1,3
15,-3,-1
16,-6,0
16,-8,1
12,-6,-6
14,-3,-5
10,-3,-6
10,-4,-5
10,-1,-2
8,0,-1
6,1,-2
4,6,-1
2,6,-1
3,3,1
4,5,1
5,7,2
6,4,4
2,3,0
1,3,2
4,-2,5
1,3,3
2,1,2
1,6,4
2,5,3
0,5,1
0,3,0
1,2,5
5,4,1
4,4,6
3,3,4
7,6,5
8,0,8
9,2,4
5,0,6
7,0,4
6,-2,3
9,0,6
11,0,2
13,2,4
12,2,3
18,0,6
15,0,2
14,0,5
17,6,1
16,4,4
18,4,5
22,4,2
22,5,0
24,8,-2
22,9,-4
21,9,0
18,12,0
12,11,5
5,13,8
1,12,14
-5,16,14
-5,13,15
-6,11,15
0,12,12
7,13,10
11,10,9
19,7,8
25,6,6
32,3,6
32,1,4
37,-2,4
31,-5,3
27,-5,2
24,-7,1
19,-3,-1
12,-1,-1
4,-1,-3
2,0,0
0,0,0
-3,2,0
-6,6,1
-5,7,3
-5,7,2
-6,9,1
-2,10,5
0,8,5
-1,10,4
1,8,1
4,6,4
7,3,2
6,3,7
8,-1,3
7,0,6
6,-1,5
8,-2,5
6,-2,2
5,-3,1
9,-1,0
10,-3,0
7,-2,-2
3,-2,-1
3,0,2
-3,2,-1
-2,2,1
-4,8,5
-4,9,5
-7,8,3
-4,4,9
-6,11,7
0,9,7
3,9,14
4,8,10
9,7,9
12,8,6
18,6,8
19,5,7
20,4,8
17,3,6
20,2,6
17,2,1
17,3,0
19,4,0
19,7,-1
17,4,-4
16,9,-2
17,8,0
18,8,1
19,10,1
15,9,2
15,8,3
15,6,3
15,4,3
14,4,4
15,2,3
15,-1,3
15,-2,3
13,-2,0
14,-2,0
13,-5,0
12,-3,0
11,-1,0
11,-2,-2
8,0,0
6,2,-1
4,2,0
0,2,2
-4,3,1
-6,4,0
-8,7,3
-10,5,1
-12,8,3
-14,10,3
-13,13,6
-11,14,5
-10,12,7
-9,9,4
-7,11,4
-5,9,7
-2,10,6
0,10,7
0,8,6
5,7,8
6,4,8
9,4,4
7,1,11
10,3,6
11,0,5
12,0,6
13,0,3
13,0,3
10,0,2
10,-1,4
10,1,5
10,2,4
10,6,4
13,5,1
14,6,4
17,6,0
16,6,-3
13,10,-5
9,9,-8
7,9,-4
4,7,0
1,8,1
-5,7,3
-8,8,6
-9,9,8
-12,10,8
-4,10,8
0,10,2
8,9,1
15,5,-3
24,6,-3
25,1,-3
29,0,-5
28,-2,-4
25,-1,-8
22,-4,-6
14,-6,-7
9,-4,-6
2,-4,-5
-7,-3,-4
-16,0,-3
-14,3,0
-19,4,2
-19,7,-1
-17,5,2
-15,8,-1
-13,11,2
-9,8,1
-6,10,1
-3,7,2
0,3,4
2,2,6
6,0,5
12,-3,3
11,-5,3
14,-7,5
16,-7,1
18,-9,1
19,-8,3
18,-9,2
20,-7,1
19,-5,2
19,0,0
16,0,0
16,2,5
13,5,3
9,8,8
5,7,7
1,11,13
-4,11,15
-6,9,13
-5,11,16
-10,9,22
-8,7,20
-7,7,19
-4,9,18
-2,10,17
3,7,17
7,3,15
9,3,14
9,0,15
10,-3,13
12,-3,10
9,-4,10
13,-7,10
15,-5,8
15,-2,7
16,-2,9
18,-2,11
14,-2,12
14,-2,10
13,0,11
19,-1,11
18,1,11
18,2,12
16,2,13
21,3,10
21,3,10
20,2,10
20,1,8
25,0,10
23,0,9
28,-3,6
24,-2,4
26,-6,7
26,-9,1
23,-5,2
19,-10,0
18,-7,0
16,-6,-1
15,-3,0
13,-2,-1
8,-3,0
6,1,0
0,1,-1
1,0,1
-3,4,0
-8,2,4
-9,2,5
-13,2,5
-13,1,9
-15,3,9
-16,2,8
-11,2,10
-12,1,5
-12,0,7
-10,0,6
-5,-2,7
-3,-1,6
-1,2,5
0,1,3
4,0,3
10,0,0
14,-1,3
17,-2,0
17,-3,0
21,-2,1
19,-3,0
22,-3,1
19,0,-1
20,-3,0
17,-4,0
16,0,-4
13,3,-4
2,6,-2
-2,6,0
-7,12,-2
-11,11,1
-18,14,6
-22,14,8
-25,13,8
-24,14,9
-19,14,9
-15,14,8
-6,14,7
4,12,0
8,13,-1
17,10,-1
22,7,-6
26,7,-7
27,0,-9
27,0,-15
22,-2,-14
18,-5,-18
13,-3,-19
6,-4,-21
1,-2,-19
-6,-3,-21
-11,-3,-19
-13,-1,-16
-17,-1,-18
-21,0,-13
-25,-3,-15
-22,0,-14
-27,3,-11
-24,3,-11
-23,0,-7
-25,6,-7
-20,2,-5
-18,3,-5
-18,0,-6
-13,0,-7
-11,3,-8
-5,1,-9
-3,-1,-10
0,-1,-12
0,2,-16
1,0,-14
4,-3,-12
5,-1,-13
6,-1,-12
7,0,-12
4,2,-12
3,2,-13
-1,1,-10
1,1,-11
0,3,-4
0,5,-5
1,3,-3
0,9,-2
4,9,-1
7,7,0
12,9,0
15,8,-4
21,9,0
20,8,-1
25,7,0
23,6,-1
24,6,-1
23,5,-2
26,3,-3
23,1,-2
21,0,-5
21,0,-5
18,2,-5
14,1,-2
16,1,-4
14,1,-2
12,3,-2
11,1,-6
9,1,-3
9,7,-3
9,3,-2
6,3,0
5,4,0
5,3,1
4,6,-2
3,5,-2
6,3,-1
3,4,-4
2,2,-3
1,3,-4
2,5,-7
2,1,-5
0,4,-9
1,2,-10
0,3,-12
3,3,-8
0,3,-7
1,3,-7
0,5,-9
0,4,-7
1,5,-8
0,3,-8
-1,4,-3
-2,4,-6
0,2,-5
1,1,-2
-3,4,-7
-3,1,-2
-3,0,-1
-2,4,-3
0,3,-5
0,5,-2
0,10,-7
1,5,-6
3,6,-1
3,6,-4
6,6,-2
4,4,-3
6,6,-4
6,7,-1
8,3,0
4,6,-2
3,5,0
6,5,0
1,5,-2
3,2,3
1,4,0
7,3,0
7,3,2
3,2,1
7,4,1
6,4,-1
10,1,-1
3,3,-1
5,5,-1
6,3,2
7,5,0
6,5,-3
7,4,-1
6,6,-4
5,4,-5
6,3,-2
7,0,-1
8,3,-1
10,0,-2
6,2,-1
8,-1,-2
8,4,-7
8,3,-7
5,4,-7
2,6,-5
-1,8,-4
-5,8,-4
-9,10,-1
-12,11,-1
-17,11,3
-23,13,5
-23,14,6
-17,15,9
-15,17,6
-7,16,3
0,15,4
6,18,3
14,11,0
19,13,1
27,8,1
27,4,4
25,4,-1
27,1,-1
26,0,0
17,0,-2
13,0,1
9,-1,-2
4,-1,0
1,0,-2
1,-1,4
-5,0,4
-2,2,3
-5,0,3
-4,1,6
-1,0,1
-2,0,3
-4,-4,3
-2,-2,1
-1,-2,0
-4,3,-2
-1,-1,-1
-2,0,1
-1,0,-3
-2,-2,-1
-3,-2,-3
0,-3,0
0,-1,-3
-1,-3,-2
-2,-2,-4
0,-1,-5
0,-1,-8
1,-3,-6
-1,-2,-8
-2,-1,-7
-3,-3,-8
-3,-1,-6
-5,-2,-4
-6,0,-4
-7,5,-4
-6,4,-5
-5,5,-2
-6,7,-5
-1,7,-4
0,7,-6
3,11,-6
4,11,-6
6,7,-2
5,6,-3
4,9,-3
3,2,-2
3,4,0
3,2,-2
5,0,0
1,2,-3
1,0,-3
0,3,-3
3,2,0
2,0,-1
2,3,-4
2,1,-1
5,2,-1
4,3,-2
6,2,0
7,7,0
9,3,1
9,3,0
10,3,4
8,1,0
7,2,0
7,2,-1
9,4,1
8,0,0
8,2,0
7,1,-1
5,5,-2
4,3,0
4,5,-3
4,4,0
1,5,0
1,3,-3
0,2,0
1,3,-1
1,4,-4
1,5,0
0,4,0
1,1,0
-1,2,2
0,1,2
0,3,0
0,3,3
-1,1,2
0,0,2
2,0,3
0,-1,2
0,0,4
0,2,3
0,1,3
1,4,3
0,6,5
-2,4,5
1,6,5
0,7,6
3,7,8
0,8,9
1,12,7
2,9,7
4,10,9
3,10,6
3,11,5
5,8,5
7,7,8
6,8,6
7,7,4
8,6,4
7,4,3
6,4,2
4,5,0
7,1,3
7,0,-1
9,-1,0
8,-1,-2
8,0,-1
9,-1,0
12,-1,0
12,-1,-1
10,1,-1
12,2,0
12,3,-3
8,8,-3
2,9,-4
-3,6,-2
-8,10,-6
-11,11,-3
-15,7,-1
-18,9,0
-20,12,5
-20,17,2
-18,15,1
-8,14,0
-2,13,0
4,11,0
13,8,0
14,6,-3
20,3,-2
23,-2,-1
20,-5,-1
14,-6,-2
12,-7,-3
8,-9,-1
4,-10,-3
0,-8,-3
-2,-7,-2
-3,-7,-2
-8,-4,-1
-9,-2,-1
-6,0,3
-2,0,1
-4,0,-2
-1,0,0
-1,5,-3
2,5,-1
5,3,-1
1,3,-1
3,0,-3
3,0,0
2,2,2
0,0,0
1,-1,1
0,0,6
0,-1,7
0,-1,8
0,1,4
2,2,8
3,2,5
6,0,4
9,4,3
6,4,1
6,3,5
7,1,7
4,2,5
4,3,4
1,3,3
5,1,3
3,1,6
5,0,8
9,5,7
12,0,2
17,3,2
21,3,3
27,1,-1
27,1,-4
28,2,-1
26,-2,-2
24,-2,-2
22,0,-2
16,-1,-4
17,-1,-2
9,-1,0
6,0,-3
3,1,-3
4,-1,1
0,2,1
-1,0,1
-4,0,0
-3,0,0
-6,0,-3
0,0,0
1,-1,0
2,-2,-2
2,-3,-3
1,-1,-4
7,-3,-1
8,-3,-4
7,-3,-5
8,-4,-4
8,-2,-3
9,-2,-4
7,-1,-1
9,-1,-4
4,0,-2
4,1,-2
2,1,0
0,2,0
0,1,0
-4,2,1
-5,3,4
-5,4,5
-6,2,2
-3,2,5
-4,0,4
-4,2,9
-2,0,4
0,0,6
-1,0,4
0,2,5
3,2,5
4,1,4
5,0,5
7,1,1
8,1,1
7,4,3
11,1,5
6,5,4
10,8,7
10,6,4
9,5,5
10,6,4
10,7,5
8,5,3
8,4,1
8,5,3
9,4,2
7,3,4
8,2,1
4,1,2
7,0,4
7,-2,2
5,-4,0
7,-3,0
5,-4,1
4,-5,-1
2,-4,0
3,-6,-3
4,-4,-1
4,-3,-3
4,-2,-2
5,-2,-2
6,0,-2
6,0,-4
10,3,-7
8,7,-6
7,7,-5
6,8,-7
2,12,-2
0,11,-2
-3,12,-3
-10,9,5
-16,10,5
-19,11,11
-18,10,14
-15,12,9
-5,9,9
3,11,13
10,11,7
21,8,5
26,4,2
35,0,2
32,-2,0
31,-4,-3
31,-8,0
23,-8,0
20,-8,-4
10,-6,-3
9,-8,-4
0,-3,0
-4,0,-1
-7,1,0
-9,4,0
-9,5,3
-10,7,4
-9,8,2
-11,6,5
-7,5,7
-8,3,3
-7,3,4
-7,2,2
-4,-1,3
-4,-3,7
-3,-3,5
-6,-3,-1
-2,-5,3
-3,-3,1
-4,-8,1
-4,-9,0
-6,-12,1
-2,-10,0
-3,-9,2
-5,-9,-4
-2,-5,-1
-6,-3,-3
-9,-2,0
-13,0,-1
-13,3,3
-14,3,1
-15,6,5
-17,10,5
-14,11,5
-12,13,3
-4,15,3
1,14,1
11,11,0
17,15,-2
24,8,0
29,7,-3
32,2,-2
35,1,-8
36,-4,-5
42,-5,-2
38,-5,0
34,-5,-3
36,-7,-4
35,-8,-3
32,-4,-5
27,-1,-1
23,0,-4
21,0,-1
19,0,-1
14,1,0
11,3,-2
6,0,-2
4,2,-1
3,1,-3
0,0,-3
0,-2,-4
-1,-3,-1
-1,-4,1
-1,-2,-4
0,-3,-4
1,-2,-5
0,-3,-6
1,-1,-4
-4,0,-10
0,1,-6
-1,1,-6
-3,0,-4
-4,4,-3
-5,6,-2
-6,2,-3
-7,4,-1
-5,3,1
-8,2,1
-9,2,3
-10,1,3
-8,3,6
-8,2,6
-7,0,9
-5,3,7
-5,0,7
0,-2,8
1,3,8
2,-1,8
4,2,8
5,1,8
8,3,5
8,3,5
7,1,6
10,2,5
12,-1,5
12,1,4
13,-1,7
12,3,5
12,1,7
11,0,6
9,0,5
10,-1,5
10,-3,2
9,-2,2
10,1,4
12,0,2
12,-2,2
11,-3,1
11,-2,-1
13,-1,-4
13,-1,-1
12,0,-3
14,-1,-3
15,4,-9
11,2,-6
4,4,-6
2,9,-9
0,8,-4
-6,11,-5
-10,10,2
-16,9,6
-19,7,7
-15,7,11
-15,9,9
-7,7,7
1,6,2
10,3,0
16,7,-3
23,0,-2
24,-1,-4
27,-6,-2
25,-6,-3
23,-8,-4
15,-9,-4
13,-11,-3
0,-10,-2
-3,-8,-1
-6,-4,1
-10,-1,1
-15,0,-2
-15,2,2
-15,3,2
-15,7,4
-8,6,7
-9,7,3
-5,10,6
-3,5,6
1,4,6
2,1,6
4,0,5
4,0,4
5,-2,2
7,-4,6
5,-8,7
2,-9,5
2,-7,3
3,-7,2
2,-6,4
3,-6,1
3,-5,0
4,-1,0
4,-1,-2
3,0,0
2,4,0
3,5,3
-2,5,3
-4,7,5
-5,6,2
-6,5,7
-9,8,5
-7,7,9
-5,9,8
-3,10,7
2,11,6
3,9,4
6,10,5
13,10,2
15,5,-1
15,1,2
16,1,0
17,0,-1
14,-6,-1
13,-5,-1
12,-9,-2
11,-7,0
9,-8,0
7,-3,-4
5,-2,-1
4,-1,0
4,0,0
6,2,1
2,4,1
3,2,3
3,5,3
2,5,0
6,4,0
5,3,1
8,2,0
7,0,1
9,1,-2
7,-1,-1
10,0,-1
11,-4,-6
9,-3,-3
13,-6,-3
8,-4,-4
8,-3,-5
7,-2,-1
3,1,-1
3,-1,-3
0,0,-1
-2,0,-2
-2,2,-1
-3,3,0
-3,4,-2
-7,3,0
-6,2,0
-9,3,0
-9,6,2
-9,2,0
-7,2,-1
-9,4,1
-5,3,0
-5,3,1
-3,3,-2
-2,1,-2
-1,5,-2
0,-1,-1
0,5,0
3,2,0
1,2,-3
3,1,0
0,2,-2
4,-1,-2
3,1,-2
3,-4,0
2,0,-3
4,2,-3
6,0,-1
8,0,0
6,0,-4
7,0,-1
5,0,-1
4,1,-4
10,4,-4
7,6,-2
4,8,-4
5,8,-2
1,11,-4
-1,14,-5
-5,14,-6
-10,13,0
-13,18,1
-15,14,5
-16,16,8
-15,14,8
-7,12,6
0,11,2
5,11,2
15,11,2
22,5,-1
27,4,-2
30,1,-5
30,-1,-5
26,0,-7
25,-3,-10
18,-4,-8
11,-4,-10
6,-3,-10
0,-3,-8
-6,-4,-7
-11,-3,-7
-13,3,-4
-15,0,0
-15,2,1
-19,5,0
-15,4,1
-16,3,2
-15,2,0
-10,3,0
-6,3,-1
-6,2,-3
-7,1,-5
-4,0,-2
-4,2,-4
-3,-1,-2
-5,1,-4
-1,0,-1
-6,-3,-4
-2,-2,-5
-1,-5,-3
-2,0,-4
-2,0,-5
-1,0,-5
0,-2,-1
-1,0,-1
-3,2,0
-4,2,2
-2,3,0
-5,5,1
-6,8,2
-7,9,3
-7,8,2
-2,8,5
-1,11,2
2,9,2
5,8,2
7,7,0
11,7,-1
12,7,0
13,5,0
15,3,1
14,5,0
12,3,-3
13,4,-1
12,5,1
11,8,0
8,13,0
10,11,1
9,17,3
10,21,2
13,19,2
13,18,6
12,21,4
14,24,4
16,23,0
10,19,3
13,18,0
12,18,4
13,11,1
9,9,1
8,8,2
8,7,1
7,5,1
4,1,-2
5,0,-1
2,-1,-1
-1,-3,-2
-2,-4,-6
-2,-3,-6
-5,-4,-3
-5,-1,-5
-4,0,-7
-6,-1,-4
-7,-1,-6
-7,0,-5
-8,1,-6
-10,-1,-4
-12,-3,-2
-10,-3,-1
-11,-3,3
-9,-5,3
-10,-3,0
-8,-3,3
-8,-5,2
-10,-5,0
-9,0,0
-6,0,1
-6,-1,0
-5,0,0
-1,0,0
-2,0,-2
-2,-2,-3
0,-6,0
0,0,0
3,-1,-1
6,-2,3
7,0,0
6,0,3
7,0,0
5,0,3
7,-2,3
4,2,4
8,2,2
6,-2,0
4,-1,1
3,0,-1
6,-1,-1
3,-4,0
7,-4,-2
4,-4,0
6,-3,0
8,-2,-4
12,-3,-4
9,1,-3
9,0,-6
6,2,-6
0,4,-4
0,5,-6
-5,7,-5
-9,8,-4
-12,9,0
-17,12,0
-18,8,4
-20,11,4
-16,10,6
-8,12,7
-2,12,4
4,15,0
13,12,1
19,9,-6
25,1,1
24,2,-2
28,0,-2
25,-4,-2
22,-6,-6
19,-7,-2
11,-4,0
6,-3,-1
4,-4,-1
-1,-3,-2
-3,0,0
-6,-3,3
-10,-1,4
-7,1,3
-6,-1,3
-7,-4,4
-3,-3,0
0,-2,-1
-4,-2,-2
-2,-4,-3
1,-1,-2
2,0,-3
1,-1,-1
1,-1,0
-1,0,0
-1,3,-1
-2,1,0
-2,1,-4
-5,0,0
-3,-1,0
-6,0,2
-6,0,-3
-2,-1,-1
-6,0,-3
-1,-3,1
-3,-2,0
-4,-4,0
-5,-2,2
-6,-2,-1
-5,-1,0
-4,1,1
-4,1,1
-3,4,1
-1,3,1
2,7,-1
3,5,0
5,9,-1
11,6,0
9,6,-1
11,5,0
11,3,-2
11,3,0
9,0,-2
7,0,0
7,-2,-1
5,-1,-2
7,-4,0
7,-3,0
6,-4,1
8,-3,0
7,-7,0
6,-4,0
5,0,-1
6,-2,-2
2,-3,-2
3,1,-2
3,0,-6
0,1,-1
3,1,-1
2,0,-1
0,0,-1
-1,0,0
1,1,-1
0,-2,-4
1,1,-1
-1,-3,-2
-2,-3,-2
-3,-4,0
-5,-1,0
-5,-3,0
-3,-3,0
-5,-4,0
-5,0,-1
-8,-1,0
-5,-2,-1
-6,-1,-2
-6,-1,0
-7,-1,-1
-4,0,-2
-5,0,0
-4,0,0
-1,0,0
-2,-1,1
0,0,-1
-1,0,2
-1,0,2
0,-2,3
0,0,1
0,-1,0
-1,-1,3
0,0,0
1,-1,3
1,0,1
4,-1,8
4,-3,1
4,1,2
5,-1,1
5,0,1
4,1,1
8,3,1
6,0,2
8,1,0
7,3,2
7,2,1
9,2,3
8,0,1
4,0,2
3,0,1
6,0,1
3,0,2
3,0,4
4,-3,2
5,-2,2
5,0,0
3,-1,0
0,0,4
3,-2,1
2,0,0
1,0,-1
-1,0,-2
0,-1,0
0,-4,4
0,-2,-1
-1,0,0
1,-2,-1
-1,0,-2
0,0,0
0,0,-2
2,-1,0
4,-1,-3
7,-2,-5
8,2,-4
7,3,-2
1,2,-4
-3,5,-3
-4,5,-1
-9,6,-1
-11,4,3
-19,7,6
-22,8,12
-20,11,9
-17,11,12
-10,11,11
0,12,11
12,13,5
19,11,1
27,6,2
32,6,2
37,-1,-2
35,-4,0
31,-7,0
26,-6,0
19,-9,0
11,-13,-1
6,-13,-1
2,-9,0
-2,-7,0
-8,-6,1
-8,-3,3
-11,-5,0
-10,0,3
-13,0,0
-11,6,2
-14,5,0
-11,3,0
-10,2,0
-7,2,-1
-8,0,2
-7,0,1
-7,0,0
-4,-5,4
-6,-5,1
-6,-7,4
-4,-5,3
-5,-3,0
-2,-5,0
-3,-4,0
-2,-3,-2
2,-2,0
4,-3,-2
2,1,-3
4,0,-2
4,0,-1
3,0,1
0,1,0
-1,1,3
-1,1,6
-2,3,3
-1,4,5
0,5,5
4,5,5
5,6,5
11,5,4
12,8,4
15,9,0
18,6,1
15,5,0
16,2,1
15,1,2
12,-1,0
7,0,-3
5,-1,-3
7,0,1
6,-1,-1
6,0,-1
5,-1,-4
5,1,0
2,0,0
3,-1,2
4,0,0
7,0,3
8,0,2
6,1,0
10,-1,-3
12,0,0
13,-1,2
11,-1,0
11,-5,2
7,-1,1
6,-1,0
10,-3,-2
7,-1,1
5,-2,-4
3,0,-1
2,0,1
3,-1,1
4,0,-1
0,2,-2
-2,0,-1
-4,3,0
-7,0,0
-10,1,-1
-11,-1,-1
-12,-1,-2
-9,-4,0
-12,-2,1
-11,-6,1
-11,-8,0
-5,-7,1
0,-9,3
0,-9,2
8,-11,6
10,-13,6
14,-12,7
22,-10,9
24,-6,8
29,-5,9
28,-4,9
32,-2,10
35,-1,11
34,1,10
36,0,8
37,3,7
34,5,8
34,2,8
30,2,6
29,2,5
25,2,6
22,0,4
20,0,5
14,0,2
13,0,1
9,-1,1
9,0,-2
6,0,-4
3,-4,-1
0,-2,-1
-3,-1,-3
-2,0,-4
-1,-1,-6
-2,0,-6
-2,4,-7
-2,5,-8
-2,10,-9
-6,11,-11
-9,13,-12
-14,13,-11
-18,9,-10
-24,7,-4
-25,8,1
-27,7,2
-31,8,7
-25,6,6
-21,9,8
-10,4,5
-1,5,3
9,5,0
17,4,-2
20,5,-2
22,1,-4
24,1,-4
23,1,-3
19,-1,-3
13,-3,-3
8,-1,-3
5,-1,-5
0,0,-5
-4,-3,-1
-8,-1,-1
-11,1,0
-8,4,3
-10,4,1
-9,3,2
-6,4,3
-7,6,1
-5,0,2
-2,1,3
-3,1,2
0,0,5
1,0,5
0,-4,5
0,-4,7
-1,-5,6
0,-6,7
0,-9,4
1,-2,3
1,-2,2
1,-5,5
1,-2,1
5,-3,2
6,0,2
6,0,1
6,0,0
9,0,3
3,1,3
3,1,6
1,6,1
3,5,5
3,7,5
0,7,3
0,11,5
7,9,4
5,12,3
10,10,1
15,12,-1
19,9,-1
16,7,-3
17,4,-4
15,3,-5
13,3,-6
10,-3,-6
8,-3,-7
5,-3,-7
2,-3,-7
-1,-6,-10
-2,-3,-11
-6,-4,-10
-7,-3,-9
-7,-3,-11
-7,0,-7
-8,-2,-8
-8,0,-7
-7,0,-6
-9,1,-6
-11,0,-6
-8,2,-7
-8,4,-5
-6,0,-3
-7,1,-5
-3,0,-5
-3,0,-7
0,0,-4
-2,-1,-7
-1,-1,-6
-1,1,-5
1,-1,-4
-2,1,-4
-1,0,-2
0,3,-2
2,1,-1
1,4,-1
0,3,1
0,6,3
3,7,1
2,4,5
2,5,5
5,3,5
2,5,4
4,5,3
6,3,3
11,6,2
9,4,2
11,6,1
7,5,0
7,8,1
6,8,1
9,5,0
8,4,1
9,6,1
9,5,0
11,5,1
12,7,-1
12,5,0
14,6,0
16,4,0
16,7,0
16,6,2
15,7,0
16,5,-3
11,5,-2
14,4,-1
13,-1,0
10,4,-1
10,4,-3
8,7,-2
11,0,-1
8,1,-1
5,4,-3
6,5,-5
6,4,-4
5,4,-6
2,8,-7
1,7,-9
0,8,-8
-3,7,-6
-10,5,-5
-9,9,-2
-14,7,0
-19,6,4
-12,8,8
-11,12,6
-6,11,6
3,12,4
10,10,6
18,10,2
27,11,0
28,8,-1
30,7,0
31,4,-5
28,2,-4
25,0,-3
19,0,-4
16,-2,-3
13,-1,0
6,0,0
2,-1,0
-1,0,1
-2,0,4
-1,-1,3
-3,1,2
-4,0,4
-6,-1,5
-3,2,2
-4,1,0
0,0,1
-1,-2,3
1,-3,1
0,-3,0
0,-3,0
-3,-1,-1
-1,0,0
-2,0,1
0,0,-1
0,2,-1
1,1,-1
1,0,0
3,0,-1
1,2,2
3,1,1
4,3,0
5,5,1
7,3,0
3,4,2
2,1,2
0,2,2
1,3,4
-1,3,5
0,3,8
-1,4,5
-1,6,9
3,5,5
6,4,2
10,5,1
14,10,2
16,8,3
17,8,2
19,7,0
19,4,4
17,3,3
13,1,-1
13,4,2
12,0,3
13,-1,3
8,1,4
6,2,3
6,2,3
4,4,3
6,5,4
9,0,3
5,2,1
5,0,2
8,3,3
8,1,0
7,0,2
9,0,-1
9,0,0
7,0,0
5,0,1
7,2,2
6,-1,0
5,0,-1
3,2,-1
5,0,0
0,3,0
0,1,0
-3,6,3
-4,6,3
-4,5,4
-3,6,1
-4,6,4
-4,7,4
-2,6,4
-2,7,4
-2,4,7
0,6,7
3,4,8
3,7,6
8,6,6
6,5,5
9,6,3
9,0,5
10,0,4
12,2,4
14,1,3
14,3,4
18,0,4
16,2,2
18,2,4
20,1,4
20,1,7
18,1,3
21,3,4
19,2,1
21,2,3
20,3,0
21,2,2
20,3,0
20,0,3
16,2,0
15,2,-1
13,1,-1
12,5,0
11,3,-1
6,7,-4
6,3,-1
4,5,0
1,4,-2
1,5,-3
1,4,-2
0,2,-3
-3,3,-2
-4,3,-1
-1,2,-4
-2,0,-7
-2,0,-3
-5,0,-2
-6,0,-7
-6,-1,-7
-6,-5,-6
-4,-3,-9
-4,-3,-8
-5,-2,-8
-1,-2,-6
0,-2,-7
0,-2,-5
5,0,-5
8,-1,-6
7,2,-7
6,5,-6
3,6,-8
0,6,-9
-1,7,-8
-3,6,-3
-6,9,-4
-10,6,0
-13,6,2
-10,5,4
-8,5,3
-4,6,3
4,7,1
9,9,2
18,4,2
21,4,0
26,2,-2
27,1,-2
24,0,-3
25,0,-4
22,-2,-2
19,-6,-2
16,-8,-5
7,-6,-4
5,-5,-3
1,-7,-6
-1,-2,-4
-2,-5,-1
-4,-3,-2
-7,-1,-4
-9,0,-4
-8,-2,-5
-9,0,-7
-6,-1,-7
-4,0,-5
-6,-4,-8
-4,-2,-8
-3,-5,-8
-2,-5,-7
-4,-4,-10
-8,-4,-10
-5,-4,-7
-4,-4,-8
-4,-4,-6
-3,-1,-7
-2,-1,-7
-2,-1,-4
0,0,-6
1,0,-7
2,0,-8
2,1,-7
7,-3,-4
5,1,-5
3,0,-7
5,0,-4
5,0,-1
4,0,0
5,1,2
6,4,0
2,3,0
7,1,0
7,5,0
13,1,0
17,1,-1
17,3,-3
17,3,0
20,4,1
18,2,0
15,3,0
14,0,0
8,-1,0
11,-3,1
8,0,2
6,-1,2
4,-2,2
8,-1,-1
7,0,2
8,-2,3
8,-1,0
9,-1,5
9,0,0
9,-3,2
9,-1,-1
9,-1,0
9,-3,1
6,-1,0
9,-4,0
7,-1,1
6,-2,-3
5,-2,0
6,-2,0
6,-3,0
5,-2,1
5,0,0
2,0,-1
3,0,0
0,-1,-3
-1,1,0
0,0,0
-6,1,0
-3,2,2
-4,0,4
-7,2,1
-8,3,3
-7,2,3
-4,1,5
-4,0,7
-2,0,7
-1,-1,4
1,-1,5
2,-1,2
4,0,3
3,1,2
4,1,5
5,0,3
4,1,-1
5,0,2
7,1,6
5,0,6
4,2,7
5,-1,5
5,0,6
6,0,3
8,0,5
5,0,2
5,0,3
9,2,1
7,1,3
6,1,1
6,2,3
10,1,1
6,4,0
7,0,0
5,0,0
4,-1,0
4,0,0
0,-3,2
0,1,-1
2,-1,-1
-1,-3,0
0,-1,-6
0,-1,-2
1,-4,-1
4,-3,-1
3,-3,-2
4,-1,-3
5,-2,-2
9,1,-4
10,0,-7
9,4,-7
7,4,-7
5,6,-8
1,7,-4
-3,5,0
-9,6,1
-16,7,1
-18,7,7
-20,9,11
-17,11,11
-11,10,12
-4,11,10
7,8,11
16,8,6
22,7,5
31,3,3
33,1,0
37,-2,1
36,-5,0
33,-7,2
27,-10,0
19,-10,-2
12,-9,-1
6,-5,-1
3,-4,1
0,-1,1
-4,0,2
-8,1,2
-4,4,5
-7,4,3
-7,8,4
-7,4,8
-8,2,1
-5,4,4
-1,1,1
-4,-2,5
-3,-3,2
-2,-5,4
-3,-6,2
-2,-6,4
-2,-10,2
-2,-3,0
-3,-6,-1
-1,-5,-1
0,-4,-1
-1,-2,-1
0,-1,-7
-2,0,-3
-1,3,-5
0,1,-1
-2,2,-4
-2,4,-3
-6,3,0
-5,2,2
-5,4,4
-8,4,5
-8,6,6
-6,7,7
-6,6,6
0,9,3
0,9,2
8,6,1
9,6,-1
15,7,-1
18,2,1
14,3,-3
15,1,1
16,-2,0
11,-3,-4
11,0,-2
8,-4,-3
10,-4,-3
6,1,0
8,-1,1
7,1,0
2,2,0
7,3,0
9,4,0
11,4,0
10,1,1
8,3,0
10,5,-1
8,2,1
5,3,0
4,-1,-4
6,-1,-2
6,-2,-2
4,-2,-3
3,-4,-1
3,-3,-1
2,-2,0
2,-3,0
0,0,-3
-4,-1,-3
-5,0,-5
-3,0,-1
-7,0,-3
-6,2,-1
-8,2,0
-8,7,1
-6,4,1
-10,7,1
-6,4,2
-7,6,3
-7,4,0
-5,4,1
-3,3,2
-1,2,-1
0,3,0
0,0,2
4,0,1
4,0,0
5,0,5
8,-1,0
7,-1,4
9,0,2
7,2,1
11,1,3
10,1,2
11,2,1
10,3,1
12,4,4
15,2,3
13,3,2
16,0,7
15,2,4
16,0,5
14,2,3
16,-1,7
16,-3,7
13,-2,5
11,0,5
13,-5,2
11,-2,2
10,-3,2
13,-1,2
9,-2,0
7,-3,-1
9,0,3
11,-1,5
11,1,1
12,1,0
13,4,-2
9,6,-5
9,6,-6
7,9,-7
3,8,-8
-1,9,-3
-5,7,-1
-14,7,4
-18,7,6
-22,9,10
-23,8,14
-20,5,11
-16,7,14
-6,9,10
3,8,7
13,8,0
19,6,0
27,4,-3
35,0,-1
30,-1,-5
27,-3,-6
29,-7,-8
21,-8,-7
15,-4,-9
10,-6,-7
3,-4,-3
-1,-2,-3
-4,0,0
-4,1,0
-4,4,4
-5,4,3
-4,7,5
-1,9,3
2,6,3
2,6,5
4,5,7
4,3,5
8,0,7
9,-1,5
7,-4,5
7,-5,4
8,-8,5
6,-8,5
8,-12,2
7,-7,3
6,-7,4
7,-5,1
6,-4,0
8,-3,0
7,0,-1
7,1,0
4,3,0
7,2,2
1,7,1
0,5,1
-1,9,2
-5,7,5
-6,6,5
-8,8,6
-4,4,9
-7,6,5
-5,8,5
-3,3,6
2,5,3
5,5,0
8,4,0
10,3,-4
10,5,-2
10,1,-4
10,-1,-4
6,-2,-5
5,-3,-4
3,-3,-7
2,-3,-8
0,-1,-6
0,2,-7
0,-1,-5
-1,4,-9
0,2,-4
0,3,-3
0,2,-3
-1,5,-3
0,3,-6
1,2,-6
0,0,-5
-1,1,-9
0,-1,-6
0,1,-5
1,-1,-3
-4,0,-5
-3,1,-5
-5,0,-5
-6,1,-5
-5,0,-6
-4,0,-6
-4,5,-4
-6,6,-5
-5,2,-5
-7,5,-4
-6,6,-2
-6,6,-3
-6,5,0
-4,6,0
-3,6,-1
-5,7,0
-4,6,-2
-6,3,0
-3,5,0
-5,4,1
-1,3,5
-3,2,1
0,2,1
-1,0,2
-2,0,3
-2,0,3
-3,1,3
0,0,1
1,1,4
0,2,0
3,2,2
5,2,-2
5,4,0
7,2,2
7,4,0
6,4,0
7,2,0
4,6,2
5,5,0
2,7,-3
4,5,0
5,5,0
2,3,0
0,4,-2
0,4,0
0,1,-3
2,2,0
2,1,-3
0,1,-4
2,2,-2
2,0,-3
0,0,-3
-3,3,-6
-2,0,-6
-1,0,-6
-1,2,-10
-2,0,-6
-2,0,-7
-1,0,-5
-2,1,-2
0,2,-4
1,2,-4
3,1,-4
3,5,-8
1,6,-8
0,7,-6
-5,7,-8
-5,9,-8
-8,10,-2
-11,8,-4
-19,10,3
-20,10,1
-22,9,2
-19,9,8
-19,8,9
-12,12,7
0,11,7
5,10,4
15,11,2
24,5,0
25,5,-2
26,2,-5
27,1,-6
28,0,-8
22,-1,-6
18,-1,-7
11,-5,-7
5,0,-2
1,0,-4
-3,0,-3
-5,0,1
-7,1,3
-9,2,4
-10,4,2
-14,2,2
-9,4,1
-11,2,0
-10,3,-3
-10,1,-2
-7,-1,-2
-8,-3,-3
-8,-2,-2
-7,-2,-4
-8,-1,-5
-7,-2,-5
-6,-5,-3
-6,-4,-2
-7,-3,-4
-6,-2,-4
-6,0,-4
-8,0,-4
-4,1,-2
-2,4,-3
-3,2,-4
2,5,-4
1,6,-2
3,3,-1
0,7,-1
-1,4,0
-3,4,0
0,4,-1
0,4,4
0,3,-1
-1,5,0
1,5,1
2,6,-1
6,7,-1
7,8,-2
8,7,-1
13,7,-5
13,10,-2
14,5,-4
12,4,-2
10,1,1
9,0,-4
7,2,0
9,-2,-3
7,0,-1
5,-1,0
3,-3,-4
3,0,-1
2,2,-2
4,-1,2
3,0,0
0,3,-1
2,2,0
1,3,0
2,1,-2
1,2,-1
1,2,0
2,-2,-3
3,0,-3
2,2,-2
2,-2,-3
0,1,-1
2,0,0
-2,2,-2
0,1,0
-2,3,0
0,3,-2
-3,4,-1
0,6,0
0,5,0
1,7,0
2,5,0
2,4,1
3,3,0
5,4,0
0,4,-3
1,2,1
1,1,0
2,2,2
2,-1,3
0,-4,1
0,-1,3
0,-1,3
0,1,3
1,0,3
1,1,2
1,0,1
3,1,0
3,2,1
4,2,2
5,1,1
5,2,1
5,2,2
6,4,2
6,3,1
6,1,3
5,2,0
3,1,2
6,0,1
2,0,0
1,0,0
0,-1,-1
-2,2,1
0,0,3
-2,0,-1
0,0,-1
0,0,-1
0,-1,0
0,1,-1
0,1,-1
-1,2,0
0,3,-5
1,3,-1
3,2,-1
0,1,0
1,1,-1
0,0,-1
-1,0,0
0,-1,1
-5,-1,0
-1,0,0
-1,0,0
0,2,1
0,3,3
2,2,0
4,2,0
5,0,3
5,1,4
6,-1,2
7,2,1
3,-1,0
3,0,0
6,-1,0
2,-2,0
5,-4,1
4,-5,-3
3,-6,1
4,-3,1
5,0,2
5,-1,0
7,1,0
6,3,1
10,2,-2
6,5,0
2,8,-3
0,7,-3
-4,5,-2
-9,3,0
-13,8,2
-18,7,6
-18,5,6
-16,4,7
-12,5,10
-10,8,3
-1,8,3
7,9,0
13,8,2
18,6,0
26,4,1
28,2,-1
27,-2,-4
27,-3,-2
20,-9,-1
15,-7,-5
9,-10,-2
3,-8,-4
1,-9,-3
-7,-5,-1
-6,-4,0
-9,-1,0
-11,-3,1
-11,-1,-4
-14,1,-2
-11,2,-1
-12,1,-3
-9,3,-3
-8,2,-1
-5,3,-2
-4,2,-3
-4,0,-1
-5,0,0
0,-2,-2
-1,-1,-1
1,-3,0
1,-3,1
3,-5,1
4,-4,-1
1,-4,1
3,0,3
4,0,2
4,-1,3
3,1,4
5,0,3
6,1,1
6,0,2
6,-1,1
6,1,0
1,2,4
2,4,2
4,3,3
1,4,3
4,0,7
3,4,5
6,4,5
9,6,4
13,4,2
14,6,4
18,4,0
19,2,2
16,1,1
16,3,2
15,0,0
12,-1,-1
7,0,1
6,-2,3
2,-1,2
4,-4,3
4,-3,2
0,-2,0
3,-2,0
5,-2,3
4,-1,1
1,0,0
6,0,2
6,-1,2
7,-2,3
7,2,1
6,-2,-1
6,-2,1
8,-4,-1
7,-2,-4
4,-6,-3
4,-5,1
2,-4,-3
4,-5,1
2,-6,0
0,-3,-2
2,-1,-1
0,-3,0
0,-1,0
1,0,-1
0,-1,0
-1,-2,0
-1,1,1
-3,3,-1
-4,3,0
-4,0,3
-1,0,0
-2,0,3
-2,1,2
0,0,2
1,1,5
0,0,3
3,0,3
2,1,2
3,0,2
4,1,2
3,3,6
5,-1,3
4,3,2
7,0,4
4,0,0
7,-1,6
6,0,3
9,2,6
4,3,3
6,2,-1
7,3,2
7,0,1
7,0,0
8,1,3
7,1,1
5,0,1
10,-1,1
3,0,1
5,-2,-3
3,2,0
1,4,3
2,5,1
3,1,0
6,1,3
2,1,-1
4,0,0
1,1,0
1,6,1
0,0,2
0,0,0
1,4,2
0,3,-1
2,1,0
1,3,3
1,4,-1
3,4,1
3,1,4
4,4,2
3,6,0
5,3,0
9,3,0
9,2,0
8,1,0
6,1,1
9,-1,1
6,-1,-2
7,-1,3
9,-3,3
7,-3,-1
8,-4,4
8,-5,1
5,-3,2
10,-2,2
6,1,-1
5,1,2
4,3,2
2,7,0
-1,8,0
-7,5,3
-9,3,0
-16,2,7
-20,0,12
-22,3,12
-25,3,17
-23,3,17
-16,5,13
-7,4,15
4,4,10
11,5,6
21,3,5
28,3,4
35,2,4
32,0,3
33,-5,0
29,-6,1
23,-4,0
17,-7,-1
12,-7,0
3,-3,0
-2,-3,1
-6,0,0
-9,1,4
-8,2,4
-9,2,1
-9,2,3
-8,5,1
-5,4,2
-2,4,1
-1,3,1
0,0,2
1,-3,-1
5,-5,3
2,-7,3
5,-8,-1
4,-8,0
4,-10,2
1,-12,0
4,-8,-2
-2,-8,-4
0,-6,-3
-2,-5,-7
-5,-7,-4
-4,-8,-7
-9,-4,-8
-6,-6,-9
-8,-1,-5
-11,2,-8
-12,1,-3
-17,3,-4
-19,1,0
-21,4,-4
-18,6,1
-21,8,2
-20,6,2
-15,10,1
-12,11,3
-5,8,-1
-2,9,4
2,9,-2
9,9,0
10,6,0
12,1,0
10,1,0
10,0,-2
11,-2,0
10,-3,1
9,-3,1
11,0,-1
10,0,0
13,0,0
14,2,0
17,2,0
15,1,0
20,2,0
21,3,0
23,5,0
22,3,-2
23,4,0
24,2,-1
20,0,0
17,-1,0
16,1,0
11,0,-1
13,1,1
9,-1,0
8,-2,-3
6,-2,-2
2,2,-3
2,3,-5
2,3,-1
3,4,-2
1,7,-4
-1,5,0
-2,6,-1
-3,7,0
-4,6,0
-8,7,2
-7,6,1
-8,8,1
-7,4,7
-7,4,3
-6,7,2
-4,4,3
-6,4,4
-2,0,6
-5,1,3
-1,0,2
-2,2,3
0,-1,4
1,-2,4
0,0,0
5,-1,2
1,1,5
6,1,6
4,4,5
7,3,7
10,2,2
11,4,3
13,4,5
11,4,2
13,2,3
15,3,3
14,5,4
16,1,3
11,1,1
13,1,2
15,0,3
12,2,0
9,0,-2
8,2,-2
7,3,1
9,1,0
7,-2,0
5,1,1
3,0,-1
2,0,0
1,0,-4
-2,1,-2
0,1,0
-1,2,-1
0,0,-1
-2,1,-4
-1,0,-1
-1,0,-1
-2,-1,-4
2,3,-2
1,0,-2
2,2,-3
4,4,-2
4,5,-3
3,6,-3
4,8,-5
-1,5,-3
-7,11,-2
-9,7,0
-10,5,2
-18,7,4
-18,9,8
-21,8,13
-16,8,13
-11,7,14
-4,8,13
4,7,9
13,6,7
24,5,3
30,4,0
36,0,0
36,2,-1
37,-1,2
33,1,-6
28,-4,-5
23,-3,-7
16,-4,-3
14,-3,-1
3,-2,-3
-1,0,-1
-5,3,-1
-10,6,2
-11,4,4
-12,4,4
-13,6,2
-14,4,3
-10,2,2
-8,1,3
-8,1,2
-5,0,2
-3,-1,2
-3,-3,3
0,-2,0
-1,-3,0
-2,-3,-1
0,-2,-2
2,0,0
1,-3,0
1,-2,-2
3,-3,-2
3,-4,-2
3,0,-2
3,7,-5
3,3,-3
3,4,-3
7,4,-4
5,6,-6
4,6,-1
1,6,-1
1,6,-2
2,4,4
-1,6,-1
-4,5,1
-4,6,-3
-2,8,0
-3,5,1
0,8,0
2,8,-3
6,7,-2
8,6,-3
7,7,-3
10,5,-4
7,3,-3
8,3,-6
8,-1,-4
4,0,-6
2,1,-5
0,-1,-5
-1,0,-3
-2,4,-5
-4,2,-4
-4,3,-4
-1,5,-5
-1,3,-5
-2,4,-5
2,3,-2
0,4,-2
0,7,-5
1,5,-4
1,1,-4
4,1,-4
1,1,-6
0,1,-2
2,0,-6
1,2,-3
2,2,-7
0,1,-3
1,1,-2
0,1,-4
0,4,-1
0,2,-1
0,4,0
0,4,-1
2,6,1
2,4,1
3,6,-1
1,6,-1
1,3,-1
2,7,0
3,3,0
4,4,-1
6,2,-2
3,2,0
5,1,1
2,1,1
4,0,2
2,1,4
2,-1,3
2,0,3
3,2,2
2,3,3
3,0,4
1,1,6
3,4,2
2,4,4
4,6,3
4,7,6
5,6,1
6,5,3
6,6,2
9,7,1
7,6,-3
5,4,0
6,4,2
8,5,-1
8,2,0
6,2,3
7,2,0
1,3,0
0,1,0
2,1,0
1,1,-3
0,0,-4
1,0,-3
1,-1,-3
1,-1,-2
2,2,-3
2,0,-4
1,0,-2
1,1,-3
4,2,-2
3,0,-5
3,6,-4
-1,7,-5
-4,10,-3
-7,8,-7
-9,10,-2
-11,10,-2
-15,7,2
-18,10,3
-20,10,7
-18,10,8
-14,10,6
-8,10,8
-1,11,1
7,10,2
15,8,2
21,5,0
26,7,-3
31,3,-4
30,1,-4
27,0,-4
24,-2,-3
21,2,-5
12,-1,-4
11,0,0
3,0,-4
0,2,1
-3,6,0
-3,3,0
-5,1,4
-7,6,5
-6,2,4
-7,2,5
-7,3,0
-3,0,0
-4,1,-2
0,0,1
0,1,1
0,-1,0
0,-1,-4
-1,-2,-3
-1,-3,-4
0,-3,-2
-4,0,-2
-1,-1,-2
-2,-1,-4
-2,0,-2
0,0,-2
-2,2,-1
-2,5,0
-1,5,-3
1,2,1
0,2,1
2,6,0
3,1,6
0,5,2
-3,4,4
-2,5,3
-4,5,7
-2,5,6
-3,10,6
-5,6,5
-3,13,6
0,12,5
2,11,7
3,13,5
9,11,2
9,8,1
13,4,1
13,3,1
13,1,2
12,0,0
11,-2,0
10,-4,1
9,-2,0
7,0,0
8,0,4
8,0,1
9,1,-2
6,0,0
8,2,1
4,4,1
4,5,3
6,5,2
5,3,1
5,4,2
3,4,1
3,3,0
4,1,1
4,0,-2
6,0,-4
5,0,-2
4,-1,0
2,0,-2
2,1,-2
-1,2,-4
3,-1,-5
0,2,-5
0,2,-5
-2,4,-3
-1,3,-2
-1,3,-1
-2,3,-1
-1,1,-2
-1,4,-2
-2,2,-2
-3,5,0
-1,3,-2
-3,1,1
-3,0,-1
-2,-1,2
-3,0,0
-2,0,2
-2,0,3
-1,1,0
-2,0,2
-2,1,1
0,-1,2
0,2,2
2,0,3
1,0,1
5,3,1
2,2,4
3,2,4
4,4,0
4,0,4
4,4,5
2,3,4
6,3,2
6,2,2
2,3,0
5,4,3
5,2,2
5,-1,2
5,0,3
6,-3,3
1,-3,2
3,-1,1
3,-6,1
3,-3,0
6,-3,0
3,-6,-3
4,-8,5
7,-10,1
8,-6,-1
8,-5,1
7,-1,2
12,-3,1
10,0,-1
9,2,-3
6,6,-2
3,5,0
-1,10,-2
-4,9,-1
-10,8,3
-11,10,1
-16,8,5
-18,7,10
-18,11,13
-13,6,12
-9,9,10
0,6,8
6,6,9
16,6,2
24,2,5
28,2,2
30,-2,0
32,-1,-2
30,-3,-2
26,-6,2
22,-9,-1
17,-7,0
11,-7,2
4,-5,1
0,-3,1
-4,0,2
-6,0,7
-7,4,6
-9,3,2
-7,2,6
-3,5,0
-3,4,3
-3,2,0
-2,3,0
-1,0,-1
0,-1,-2
0,-2,-1
-2,-3,0
0,-3,-2
0,-5,-3
-1,-9,-2
-1,-6,-1
-1,-7,-1
0,-6,0
-1,-3,1
-2,1,0
-2,1,0
-1,2,0
0,3,0
0,4,0
0,6,1
1,8,2
0,6,3
-1,9,4
-4,6,2
-5,4,2
-5,2,5
-5,4,5
-3,5,5
-2,6,3
0,6,4
3,4,7
7,3,5
8,4,4
11,1,1
16,3,0
14,2,3
15,0,1
17,-4,6
15,-3,4
11,-2,2
8,-4,1
7,-3,3
7,-4,2
8,-2,1
4,-1,2
4,0,-1
5,0,4
5,2,2
7,-1,2
4,0,4
9,0,2
9,-1,5
9,-6,1
10,-4,0
7,-1,0
5,-3,3
7,0,1
4,-2,-3
2,0,-4
2,0,-1
0,2,-2
0,0,-1
-4,0,0
-3,-1,0
-2,0,0
-4,-2,0
-4,1,0
-5,1,3
-3,0,-1
-2,1,2
-6,1,0
-4,2,2
-4,4,3
-4,1,4
-4,1,0
-4,2,0
-2,0,2
0,0,2
0,-1,3
0,1,4
4,1,4
3,-2,2
4,-3,2
5,0,4
3,3,2
5,1,5
9,1,8
5,0,3
7,0,6
6,0,3
7,2,3
8,1,5
7,2,5
9,0,3
8,5,4
7,2,2
10,1,3
9,0,4
5,0,0
6,0,4
6,0,1
3,-1,2
2,-4,0
3,-2,-1
1,-4,0
2,-3,2
0,0,1
0,-1,0
3,1,2
2,0,2
2,1,-1
5,1,0
6,2,0
8,1,-3
9,1,-2
10,7,-4
6,7,-4
5,9,-8
0,7,-3
-4,8,0
-5,5,2
-11,5,7
-15,6,11
-17,8,15
-14,4,14
-10,6,13
0,8,11
8,6,6
16,3,7
23,2,2
32,3,0
37,1,0
35,-1,0
31,-5,-2
31,-4,-3
24,-6,-2
17,-4,-2
12,-2,0
3,-2,0
0,0,1
-5,3,0
-6,1,2
-10,4,4
-8,5,6
-7,7,3
-5,6,3
-7,4,7
-2,1,7
-1,0,4
1,2,3
1,-1,0
0,-4,5
2,-4,1
5,-6,3
6,-5,3
7,-4,1
5,0,3
3,-2,-1
4,-2,1
4,3,-2
4,4,-1
4,3,0
2,4,-1
1,5,1
4,7,4
3,6,0
2,5,5
1,6,3
-2,5,6
-1,7,5
-4,5,5
-1,7,7
0,7,6
0,8,3
3,5,6
6,8,5
12,7,1
18,7,2
20,10,0
24,6,0
24,8,5
20,5,2
23,3,1
18,0,3
13,-1,2
10,-1,4
9,-2,3
6,-1,3
2,-2,1
0,-3,2
3,0,2
2,2,2
2,2,-1
3,2,1
7,5,0
7,4,1
6,4,0
10,2,1
8,3,0
8,-1,0
7,2,0
6,1,-3
7,0,-2
9,-3,1
4,1,0
6,-2,0
6,0,0
3,-1,0
5,-1,-1
2,-1,-2
3,1,-1
4,-1,4
1,2,-2
0,5,0
-2,5,0
-7,2,2
-8,3,0
-6,2,5
-11,3,2
-10,3,5
-9,2,-1
-6,0,5
-9,5,2
-5,2,1
-3,3,2
-1,-1,4
-3,1,4
-2,2,3
-2,0,1
1,0,1
4,0,2
0,1,0
1,4,0
1,2,3
2,6,1
3,4,1
6,5,7
5,4,5
4,4,3
5,4,1
4,3,4
4,5,5
6,2,2
6,1,2
1,0,0
5,0,4
7,0,0
5,0,-2
6,-1,-1
6,1,0
6,1,2
6,0,-1
7,0,0
6,3,1
7,0,0
11,7,-2
7,4,-2
8,8,0
0,8,0
-1,7,0
-6,7,0
-9,7,4
-13,9,8
-20,6,10
-16,9,11
-18,8,15
-8,5,15
0,10,9
7,9,10
18,7,6
26,5,7
31,4,2
35,1,3
34,0,0
35,-5,-2
27,-6,-5
24,-6,-1
17,-6,-3
10,-4,-3
3,-3,-2
0,-2,-1
-9,0,0
-10,1,2
-16,8,3
-12,5,4
-12,5,3
-12,6,2
-11,7,4
-12,6,5
-6,2,5
-5,0,5
0,0,2
-2,-1,2
0,-3,2
0,-6,2
4,-6,3
4,-7,2
6,-7,1
6,-5,2
5,-3,-1
5,-1,0
4,-2,0
4,1,0
3,1,0
2,5,3
4,4,0
3,5,2
4,9,0
4,8,0
3,9,2
0,8,4
0,7,7
-2,3,6
-3,7,3
-3,4,5
-2,6,5
0,6,4
1,8,5
6,6,2
11,6,1
13,6,-1
16,7,-1
14,6,-4
14,4,0
12,2,0
11,0,1
10,-1,0
9,-3,0
4,-2,0
1,-2,2
0,0,0
-2,-1,-1
-1,0,0
-1,0,2
0,0,1
-2,0,0
0,2,1
2,4,0
2,3,0
4,1,-1
4,1,-3
6,1,0
2,0,-2
7,0,-4
6,0,-3
7,0,0
10,-1,-1
6,-1,-1
8,-2,-2
9,0,-2
8,0,0
8,3,-2
7,1,1
3,1,0
0,3,-1
1,3,-1
0,6,-1
0,4,-3
0,5,-2
0,3,1
-2,6,-1
-8,6,-3
-6,6,-2
-7,3,1
-8,4,-1
-10,1,0
-10,2,2
-8,2,-1
-10,0,2
-10,0,2
-7,0,1
-10,0,-4
-9,2,0
-5,3,-2
-6,1,0
-4,0,-1
-6,0,0
-3,5,-1
-5,4,-1
-5,1,0
-4,1,0
0,1,1
-1,3,5
0,2,1
-3,0,0
-3,2,1
0,0,-1
0,1,-1
0,0,0
1,0,1
0,2,1
1,2,-2
3,0,0
1,1,0
0,2,-2
2,0,0
3,0,2
2,-1,-1
2,0,-2
0,0,-5
2,-4,0
1,-2,-1
3,-3,-3
4,-2,-3
2,-1,-2
2,0,-4
5,1,-4
2,6,-4
1,7,-6
-1,6,-5
-3,9,-3
-10,8,-7
-13,8,-4
-18,10,-4
-19,10,0
-20,10,4
-20,6,6
-21,10,4
-17,7,7
-9,10,6
3,8,3
9,9,0
17,5,0
25,4,-1
27,3,-2
27,4,-4
22,0,-5
22,-2,-7
18,-2,-8
10,-3,-8
5,-5,-6
0,0,-7
-1,-1,0
-8,0,0
-8,2,0
-9,3,2
-9,3,1
-10,7,3
-11,6,0
-8,7,0
-9,5,0
-5,5,0
-6,3,0
-1,0,-1
-2,0,0
-2,-2,-2
-1,-2,1
-3,-3,0
-2,-2,-1
-5,-4,-3
-3,-2,-1
-3,-4,0
-4,0,0
-5,0,1
-6,3,0
-6,3,0
-4,6,-3
-1,3,2
0,5,0
0,7,3
2,4,1
0,7,0
1,6,2
0,7,3
0,5,3
-1,5,0
0,4,1
-1,5,0
-1,6,-1
0,8,1
5,4,0
10,7,0
12,4,0
13,4,-2
16,4,2
16,3,-3
15,1,-2
13,0,1
15,0,0
11,1,0
13,-2,2
9,1,-1
9,3,0
6,4,-1
5,4,-1
4,5,0
0,3,0
2,2,1
0,5,3
-1,3,4
0,3,1
1,0,2
-1,0,1
1,1,4
1,0,0
0,-1,1
1,-1,1
4,1,0
4,1,-2
3,0,-2
5,2,-2
5,2,0
5,4,0
3,5,1
3,5,-4
4,9,-3
2,6,1
0,5,1
3,6,0
3,5,2
4,5,3
0,5,0
0,4,1
-2,4,-1
0,5,0
-2,1,-2
-2,0,2
-2,0,1
0,0,-1
-3,1,0
-2,2,2
-2,1,-1
-1,0,0
0,0,1
-3,3,0
-4,3,0
-1,4,-1
0,3,1
3,5,0
1,6,0
1,5,0
4,3,2
3,4,3
5,3,2
2,6,1
0,3,-1
2,2,0
0,4,1
2,5,-1
0,1,0
2,2,0
1,4,2
-1,3,2
0,3,0
1,1,0
0,1,3
-3,2,2
0,2,0
-1,2,1
-2,3,0
0,2,2
0,4,0
-2,2,3
-1,4,1
1,0,2
-1,1,1
0,2,1
2,3,0
0,3,1
-1,2,2
1,3,3
2,4,0
3,0,1
3,1,0
4,2,0
4,1,3
6,0,1
5,2,2
5,1,2
7,0,4
7,1,0
3,0,2
4,3,0
5,1,0
6,-1,2
5,0,-1
5,-1,-2
2,0,-1
5,-2,-3
5,-1,0
3,3,0
5,2,1
8,2,-1
5,3,-2
4,7,-2
3,6,-2
-3,6,-1
-5,6,-3
-8,6,0
-14,7,0
-15,7,3
-18,6,5
-20,8,6
-19,7,10
-16,9,7
-10,9,9
-2,9,8
6,8,4
11,8,1
20,5,1
26,2,0
28,0,2
29,0,-1
25,-2,-2
23,-4,-1
14,-5,-2
13,-8,1
6,-7,0
3,-4,0
4,-4,5
-1,-1,5
-2,0,5
-3,2,6
-3,1,3
-1,0,6
0,0,3
2,1,1
0,0,-1
1,-2,0
3,-1,-1
1,0,-1
1,-3,-2
1,1,-2
-1,-3,-2
0,1,0
-2,-1,-1
-2,-1,0
-4,0,1
0,-2,1
-4,0,0
-1,0,0
0,-1,2
-1,0,1
-2,2,2
-3,0,1
0,2,1
1,-1,1
1,0,2
0,-1,1
4,0,4
1,0,4
5,-3,5
1,0,3
3,3,1
-3,1,2
0,4,3
2,6,4
4,6,1
7,5,4
7,5,2
9,7,3
10,7,2
12,5,2
10,2,1
7,-1,5
6,-1,4
4,-2,1
4,-1,1
0,-1,5
0,-2,0
0,-3,2
0,-2,-1
-1,0,0
2,0,2
3,1,5
4,0,2
3,1,-1
3,-1,0
7,0,0
7,-3,1
8,-1,2
9,0,2
9,-1,0
12,-2,0
8,-5,-2
9,-2,5
7,-3,1
5,-2,-1
4,-1,0
4,-2,0
3,1,2
4,-1,-1
0,0,1
0,0,0
-2,0,-1
-1,1,0
0,0,2
-3,-1,-2
-2,0,0
-1,2,0
-3,1,1
-1,4,1
-2,0,0
1,0,3
-2,1,1
-1,4,3
0,0,0
2,3,3
4,1,5
2,2,3
5,-1,5
4,0,4
4,2,0
4,1,3
4,1,4
6,0,0
2,0,1
8,-1,2
6,-1,2
5,0,3
6,1,3
4,0,2
3,0,5
3,-1,3
2,0,3
0,1,2
0,0,0
0,1,2
0,2,4
-2,2,1
1,0,2
0,3,3
0,3,2
0,1,2
0,2,0
0,2,0
1,0,0
1,3,-1
4,-2,1
0,0,2
0,1,2
2,1,4
1,1,1
1,5,4
2,1,2
3,1,1
5,2,4
3,1,1
5,1,0
8,0,3
7,0,-1
6,0,0
7,0,0
6,-1,-2
4,0,0
4,0,1
7,-1,0
5,-4,-2
2,-4,2
6,-4,5
4,-3,2
4,-3,2
5,-2,6
6,0,1
7,0,2
9,1,0
8,3,-2
8,5,0
3,7,-5
1,9,-4
0,7,-1
-6,9,1
-11,7,8
-12,5,8
-16,6,11
-15,5,10
-9,5,10
-4,7,9
6,6,7
11,6,4
22,1,0
27,3,1
31,1,-2
30,-2,1
30,0,0
23,-2,-4
21,-3,0
14,-3,-2
5,-3,0
0,-1,0
-4,-1,2
-7,2,1
-11,3,2
-9,4,6
-10,4,4
-7,4,2
-6,3,3
-5,2,0
-3,3,4
2,1,2
2,0,0
2,-1,0
4,-1,1
5,-7,-2
4,-5,-1
4,-3,0
3,-6,-2
5,-3,0
0,-2,0
0,0,-1
4,0,0
1,0,-2
2,3,-1
4,5,-5
1,4,-1
0,4,-2
-1,4,0
2,4,0
-2,3,0
-2,3,0
-5,3,1
-7,4,0
-7,4,1
-6,2,2
-5,0,4
-6,5,4
-2,4,5
0,3,2
4,5,1
7,6,0
14,5,0
14,3,-1
15,3,2
14,4,3
14,1,0
14,0,2
12,-2,4
7,-1,1
9,-1,4
5,-3,3
4,0,0
4,-2,4
4,1,0
8,-1,3
8,2,4
8,1,0
11,1,1
6,0,3
10,0,1
11,0,3
10,-1,-1
11,1,0
7,0,1
7,-2,4
6,-1,3
5,-1,-1
6,-3,1
4,0,0
4,1,0
1,0,1
1,0,0
2,3,0
4,1,-1
1,2,2
1,2,-1
0,3,2
-2,2,2
-3,3,0
-7,2,1
-5,4,1
-7,1,2
-7,4,5
-7,2,4
-7,4,4
-3,0,5
-4,0,4
-3,3,4
-2,1,5
0,1,1
0,1,3
4,1,3
6,0,4
6,2,2
6,1,3
6,4,3
8,4,4
6,1,4
9,4,4
6,1,1
3,2,2
7,4,4
5,1,5
8,1,4
8,1,2
3,0,3
4,0,2
3,-2,4
0,1,0
0,0,2
-1,1,1
-1,4,0
0,4,2
-2,4,1
2,1,2
0,5,1
1,3,1
3,3,1
3,0,0
0,1,1
3,1,0
6,0,0
5,1,0
4,-1,-2
5,0,-1
7,0,0
6,0,0
11,0,2
7,0,0
10,3,2
11,2,0
11,3,1
10,5,0
8,6,-1
4,9,-2
2,9,0
-3,9,0
-7,6,2
-12,4,5
-17,9,9
-20,8,10
-21,8,17
-21,12,18
-13,9,16
-7,9,15
4,8,9
13,8,8
23,7,6
30,8,3
34,6,-1
36,3,-2
34,-1,-3
33,-1,-3
30,-4,-3
22,-6,-3
16,-3,-2
12,-5,0
7,-1,2
0,-4,0
-2,-3,2
-7,-1,3
-6,3,7
-9,-2,6
-10,3,4
-7,6,4
-7,5,4
-6,5,4
-7,1,1
-4,1,4
-2,0,2
-2,1,3
0,-1,0
0,-2,4
0,-5,1
0,-1,-1
0,-3,0
1,-1,0
1,-4,-2
0,0,-2
1,-2,-2
-1,0,0
0,1,1
-1,4,1
-1,4,0
0,6,1
1,5,1
2,5,2
2,8,1
-2,3,4
-1,3,3
-4,4,2
0,8,1
-5,5,3
-1,7,5
3,5,7
3,6,5
7,10,3
13,9,2
17,7,2
17,7,0
17,6,-1
17,5,1
17,0,0
13,0,0
12,0,-1
11,-1,-1
9,-1,-3
4,0,-3
3,0,-2
3,0,-2
1,2,-1
-1,4,-2
-2,3,-1
-2,6,0
-1,4,0
0,4,0
0,2,-2
-3,6,-2
-3,2,-3
-2,3,0
-2,1,-3
-1,1,-2
-3,0,-1
0,2,-2
-2,0,-4
-2,0,-6
-1,2,-3
-1,0,-2
-1,0,-3
-2,3,-5
0,0,0
0,4,-2
-2,5,-5
-4,2,0
-2,3,-1
0,6,3
0,4,0
-2,5,-1
-3,3,0
-2,3,2
-4,4,0
-1,2,-1
0,2,1
0,2,-2
0,1,0
-2,4,2
-2,2,2
-3,6,2
0,6,2
1,2,0
0,5,-1
1,5,0
0,4,0
3,4,-1
3,5,-1
0,3,1
4,4,0
2,5,-2
2,4,-4
3,5,0
0,3,-1
1,2,-1
0,2,-1
1,3,-1
0,5,-3
-3,6,-3
-1,4,-2
-3,4,-1
0,4,-2
-4,3,-2
-3,5,-5
-3,5,-3
-1,4,-2
-4,3,-1
-1,1,-1
-3,2,0
-5,2,-2
-1,0,0
-3,1,0
-3,3,-3
-3,-1,-2
1,0,-2
1,0,-1
0,2,0
1,0,-1
3,4,0
6,4,-4
5,6,-1
7,4,-4
6,6,-3
6,7,-3
1,10,-3
-2,9,-6
-5,10,-4
-8,7,0
-10,6,4
-12,7,6
-15,9,6
-15,8,10
-13,9,8
-10,8,10
-4,9,7
4,10,3
12,11,3
21,9,0
26,7,0
28,7,-1
28,7,-1
27,1,-5
26,1,-2
21,3,-3
16,-1,-4
9,0,0
6,0,0
1,1,-2
-1,0,1
-5,2,1
-8,0,2
-6,4,2
-7,0,1
-8,4,-1
-5,-1,1
-1,3,2
-6,3,-1
-4,1,-2
-2,-1,-2
-3,0,-2
-2,-1,-3
-3,0,-2
-5,0,0
-4,1,-2
-5,0,-2
-5,-1,-1
-5,0,-2
-5,1,0
-3,4,0
-2,4,-2
0,3,-1
0,7,2
0,5,1
1,5,0
4,3,0
3,4,3
8,1,0
7,3,2
4,2,2
6,1,3
1,2,0
4,0,3
2,2,0
1,3,3
1,4,4
4,4,0
5,4,2
8,7,1
12,5,3
12,9,1
14,7,2
15,5,0
13,6,3
14,1,2
10,3,0
8,1,-2
6,0,-1
3,3,3
5,2,0
6,2,1
5,3,1
1,4,0
1,4,2
0,5,1
4,2,3
2,2,-1
2,2,-1
4,0,0
2,1,0
3,-1,1
1,-2,-2
1,-3,-1
1,-2,-1
0,-2,-1
-1,-3,-1
-1,-2,-2
-2,0,-1
0,4,-1
2,0,-1
0,1,-3
0,5,-1
-1,5,-2
-1,6,0
0,5,0
0,2,-2
0,3,0
0,6,1
-2,2,3
-4,4,1
0,0,2
0,2,1
-1,3,0
0,2,2
-1,2,3
1,0,2
2,1,3
2,1,1
2,3,2
4,0,2
2,4,2
3,1,3
3,3,2
5,3,4
4,1,2
3,0,0
7,3,3
6,4,3
7,2,2
5,1,1
6,4,1
4,-1,3
2,0,0
3,0,1
2,0,0
2,-1,0
0,0,1
0,0,1
1,0,0
2,-2,1
0,0,0
0,2,0
-1,0,1
-1,2,2
0,2,0
0,5,0
2,2,-1
0,1,1
2,-1,2
3,-2,2
4,1,1
5,-2,2
8,-3,1
3,-2,1
6,0,3
2,0,-3
7,-2,0
3,-2,2
3,-3,0
5,-3,-1
3,-3,-3
4,-2,0
4,0,1
9,-1,1
8,0,0
5,0,0
7,4,1
6,1,0
2,4,-2
-2,6,-2
-4,5,0
-7,3,2
-9,2,3
-13,5,5
-18,8,5
-19,5,12
-16,6,9
-11,7,11
-4,8,9
2,6,9
13,8,4
19,6,3
26,3,3
29,2,1
31,0,1
29,-1,-1
26,-6,1
24,-5,-3
16,-7,-1
12,-6,0
6,-7,1
2,-7,0
-1,-6,0
-3,-3,3
-8,-2,1
-8,-1,2
-4,2,1
-7,2,2
-4,-1,0
-5,2,0
-2,3,0
-3,3,-2
-5,2,1
-3,2,0
0,-1,2
-1,-3,0
-3,-3,0
0,-3,1
1,-4,1
2,-6,-2
0,-4,-1
0,-3,1
1,-1,-1
0,0,-1
0,-1,3
0,2,1
3,2,3
0,0,5
0,1,4
-1,5,3
0,5,3
1,2,4
0,3,4
-1,4,4
-4,1,7
-1,1,4
-1,2,5
0,6,4
0,2,8
3,2,7
7,8,4
10,3,4
11,4,2
16,5,2
16,4,1
16,3,0
12,0,3
12,0,5
10,0,3
9,-2,3
4,-1,3
3,-2,4
4,0,1
2,2,2
5,2,3
4,2,1
8,3,3
6,3,2
10,1,0
8,2,4
12,0,2
11,0,0
13,-3,3
12,-2,2
13,-3,3
12,-6,2
11,-4,-3
10,-4,2
5,-5,1
6,-5,-1
5,-6,-1
5,-4,0
4,1,1
3,-1,0
3,1,1
2,0,0
2,5,3
0,2,0
0,1,2
0,1,3
-1,6,1
-3,5,-1
-2,2,1
-1,2,1
-6,1,1
-4,2,1
-6,0,3
-2,0,5
-2,0,4
0,0,1
1,0,3
1,0,1
1,0,1
5,1,4
2,0,1
2,0,3
2,1,2
5,1,3
2,1,4
3,4,2
4,0,3
6,1,3
5,1,5
4,1,4
7,1,4
6,3,5
7,-1,0
7,2,1
8,2,2
10,3,0
13,2,1
10,0,0
10,1,1
5,0,1
6,0,0
4,0,1
7,-3,0
5,-5,0
9,-4,3
2,-2,0
3,-3,0
2,-1,4
5,0,2
5,0,0
8,3,0
7,1,0
7,4,-2
4,5,-5
4,6,-4
2,7,-3
-1,7,-3
-6,8,0
-10,7,5
-13,5,7
-16,4,8
-16,5,16
-15,7,12
-11,6,8
-2,3,11
6,6,3
15,4,5
25,3,2
27,2,0
30,4,-3
32,-1,-4
27,-3,-3
22,-5,0
16,-6,0
8,-5,0
1,-4,0
-5,0,2
-7,1,1
-9,0,3
-12,5,4
-13,1,5
-14,3,6
-12,4,3
-10,2,6
-8,3,5
-4,2,3
-4,-2,6
1,-3,4
5,-5,4
6,-5,1
5,-4,3
6,-5,0
7,-6,2
5,-6,0
8,-4,-1
7,-3,-3
6,-4,0
6,-4,0
5,-2,-1
4,0,0
1,1,1
6,2,3
3,2,1
1,3,-1
0,3,0
1,3,0
-4,6,1
-8,6,0
-8,2,2
-10,3,3
-11,2,6
-13,2,6
-11,4,5
-11,6,6
-6,6,6
0,8,1
6,4,0
9,5,0
13,6,3
18,8,0
21,1,1
16,2,-2
20,-1,2
15,-2,3
14,-5,0
9,-3,0
5,-3,1
4,-1,3
5,-4,1
3,0,1
0,1,3
3,3,5
2,3,7
6,3,6
2,4,6
2,3,5
1,3,7
6,3,7
5,2,7
3,0,5
4,0,10
7,0,4
5,0,4
10,0,4
10,1,6
9,-2,3
8,0,5
12,0,3
12,1,3
11,0,1
10,0,3
8,4,1
9,3,3
6,1,4
6,2,3
4,3,2
0,3,0
-1,2,7
-1,0,3
-4,2,4
-3,4,5
-6,4,3
-5,1,0
-4,1,0
-4,2,0
-5,3,0
-5,1,2
-7,2,0
-6,2,-1
-7,4,-3
-8,4,-1
-6,5,-1
-7,4,-2
-1,4,-1
0,3,-1
-2,6,-4
0,2,-3
1,5,-4
-1,4,-1
1,2,-2
2,1,-1
3,1,1
3,2,-3
7,0,-3
9,0,-1
8,0,-3
9,-1,-1
7,-3,1
10,0,-3
8,0,-2
7,2,-1
8,4,0
14,2,-2
11,5,-3
10,6,-4
7,8,-4
4,7,-3
1,10,-2
0,13,-3
-2,12,0
-6,10,3
-13,9,7
-12,11,10
-16,8,10
-10,11,12
-8,9,10
0,7,8
5,9,7
12,7,6
24,5,0
28,6,-2
31,5,-3
33,2,-7
30,0,-6
26,-2,-6
20,-2,-5
12,0,-5
8,-4,-4
1,-3,-2
-3,0,0
-8,0,0
-9,2,3
-12,5,1
-11,4,3
-12,4,1
-12,4,1
-8,8,-2
-8,6,-1
-5,4,0
-5,5,-1
-4,3,0
-2,-2,1
-3,0,-3
-4,-2,-4
-4,-3,2
-2,-3,-5
1,-2,-1
0,-2,-3
0,1,-3
-2,3,-1
-1,3,-4
-1,4,-3
0,6,0
0,4,-1
1,6,0
5,3,5
3,3,1
3,5,-2
2,3,0
0,3,2
-2,6,0
0,4,4
1,4,4
-1,3,2
-3,5,5
-1,6,4
0,8,2
3,11,5
6,9,4
7,10,1
12,9,0
13,6,-2
20,5,0
18,5,0
15,4,4
16,1,0
16,1,-1
12,1,0
15,2,0
10,1,0
8,0,-1
8,4,-4
5,1,0
2,4,-3
3,1,0
1,5,1
-1,4,0
1,4,-2
1,1,-1
0,3,-2
-1,1,-4
-2,0,-4
-2,0,-4
0,2,-5
-1,0,-1
0,2,-5
-5,-1,-5
-4,-1,-3
-2,2,-2
-2,0,-3
-1,2,0
-2,1,0
-3,0,0
-4,6,-3
-2,2,1
-4,4,0
-3,5,-2
-1,8,0
1,6,0
0,2,3
0,2,-2
0,3,1
0,1,0
3,1,5
1,1,2
0,-1,1
0,1,1
3,2,1
0,1,6
-2,2,5
-1,1,4
0,3,1
0,2,4
2,1,2
1,6,2
2,6,2
3,5,4
4,9,0
3,4,0
3,5,1
2,2,2
2,4,-1
4,2,0
3,2,0
0,1,0
2,2,4
2,1,-1
0,2,1
-2,2,1
0,2,1
1,4,-1
-1,4,-2
-3,5,1
0,3,3
0,3,1
1,5,2
2,2,1
1,7,2
1,1,2
0,3,1
3,4,0
5,3,-2
3,3,-4
6,4,4
7,4,-2
8,5,1
8,1,-1
12,5,0
12,4,-1
11,4,0
8,9,-1
4,8,0
3,7,0
3,5,0
-1,9,0
-5,7,2
-8,7,5
-10,9,6
-7,8,10
-6,7,10
-3,6,9
2,7,9
10,5,7
17,5,6
20,8,3
23,7,0
27,6,-1
30,1,0
24,0,-2
24,-1,-3
18,-1,-3
12,-5,-5
8,-3,0
0,-3,-3
-3,-2,3
-8,-3,1
-5,-4,5
-8,-3,9
-8,-3,4
-7,-4,1
-5,-2,-2
-7,-5,1
-4,-1,-2
-6,0,-3
-4,-3,-2
-5,-2,-3
-4,-3,-1
-4,-2,-3
-4,-1,-3
-4,-3,-1
-5,-1,-1
-5,-1,1
-5,0,0
-3,0,0
-2,0,3
-2,1,2
-3,1,-1
-1,3,0
-3,0,-2
0,3,1
2,3,0
5,0,0
3,1,0
2,4,-1
4,1,2
5,2,3
2,0,1
5,1,0
6,0,3
3,2,3
3,4,5
3,4,3
4,4,5
7,7,3
9,9,4
14,6,1
12,5,2
15,6,0
15,3,1
7,2,2
10,-1,2
7,-5,0
4,-4,0
1,-3,-2
-1,-3,0
0,-2,0
-2,-1,2
0,-2,0
0,-1,0
1,1,0
2,0,1
3,0,0
3,0,0
4,-1,1
5,0,0
5,0,0
5,0,-1
6,0,-2
4,0,2
3,0,-1
3,-2,-1
5,-1,-1
2,2,0
2,0,1
2,2,-4
2,0,0
2,1,0
4,2,-1
1,1,0
1,0,1
0,0,1
1,2,1
1,2,1
0,0,3
0,0,3
0,0,4
-1,0,2
-1,2,2
-2,1,3
1,0,6
0,0,0
1,-1,5
1,-2,8
4,0,9
5,-2,8
5,5,5
6,0,5
6,1,3
8,1,4
4,-2,4
6,-1,3
6,0,1
7,1,2
6,0,3
6,1,4
3,0,4
3,0,2
1,-1,3
2,0,2
3,0,1
0,-1,6
0,0,3
0,5,1
0,1,0
-1,2,2
0,2,0
0,2,1
1,0,2
3,0,0
2,1,1
2,5,0
5,2,-1
4,0,0
4,2,2
4,-2,3
6,1,2
6,0,0
3,-2,0
3,-1,2
1,-2,-1
5,-2,3
0,-2,0
4,-4,0
4,-2,-1
6,-2,0
6,-2,0
4,0,0
6,1,0
9,2,1
11,2,-1
11,1,-1
13,5,-1
9,7,-1
8,5,-4
2,5,0
-3,7,0
-7,5,0
-12,8,2
-16,5,10
-18,5,11
-18,6,13
-15,6,14
-8,5,13
2,7,12
9,2,8
16,6,3
23,2,3
30,-1,0
32,-2,-1
29,-5,-2
28,-5,-3
22,-6,-4
15,-7,-2
8,-3,0
5,-2,-3
0,-1,0
-5,-1,1
-9,2,-1
-11,3,6
-10,3,6
-8,5,3
-5,4,6
-6,4,2
-6,3,6
-4,1,-1
-6,1,1
-1,-1,5
-1,-2,2
-4,-3,3
-3,-4,3
-4,-3,3
-2,-4,2
-3,-6,2
-4,-5,5
-2,-2,0
-3,0,4
-5,2,3
-1,4,1
-2,4,5
0,3,4
0,0,2
1,3,2
1,5,1
1,3,2
-1,2,4
0,2,3
-4,4,4
-2,1,6
-4,3,3
-3,1,6
0,3,6
1,6,6
5,5,6
9,5,5
14,7,2
16,6,2
19,4,0
20,6,3
22,0,1
22,1,0
20,-3,1
16,-3,1
11,-4,3
6,-3,0
4,-3,1
4,-4,1
1,-3,0
2,0,0
3,1,0
2,0,3
4,3,4
4,4,1
5,2,2
6,2,0
8,0,0
6,0,3
7,2,-3
4,1,-5
8,0,0
3,-1,-3
4,-1,-3
3,-2,-1
0,-1,0
0,0,0
2,-3,-2
3,-2,-1
1,-1,0
1,0,0
0,3,1
0,4,0
-1,4,-2
-2,3,-1
-3,3,1
-2,4,2
-4,2,1
-4,-1,2
-4,3,0
-6,3,2
-5,0,1
-4,2,4
-3,1,4
-1,1,2
3,0,4
3,0,1
3,0,0
4,3,1
6,3,2
6,3,2
10,1,2
6,1,5
6,2,3
7,0,2
6,1,1
4,4,6
3,4,1
5,3,4
2,1,2
3,1,5
2,2,1
0,2,1
-1,3,3
-1,0,2
0,0,1
0,0,2
0,2,0
-1,1,-1
1,3,0
2,1,0
1,0,-2
0,1,-1
1,1,0
2,0,-2
-2,1,0
-1,0,0
2,0,-1
0,0,0
2,0,-3
4,3,0
3,0,-1
6,1,0
5,0,-1
6,0,0
6,0,-1
9,1,0
8,2,0
9,2,-1
7,6,0
7,4,-2
3,7,-4
1,6,-2
-1,7,0
-5,7,3
-11,7,5
-15,6,7
-18,6,9
-20,5,15
-15,6,15
-12,8,15
-3,6,14
7,6,11
12,8,8
20,6,7
26,6,4
31,2,1
32,1,0
32,0,-2
29,-1,-3
21,-4,0
18,-5,-4
11,-5,-4
5,-3,0
-3,-3,-2
-2,-2,-2
-4,-1,2
-8,0,1
-8,0,4
-8,2,1
-7,1,4
-8,3,-1
-6,0,1
-5,1,-3
-6,0,-2
-6,0,0
-10,-2,0
-8,-3,-1
-6,-2,-2
-7,-3,1
-6,-2,-2
-6,-6,-1
-7,-2,-1
-3,-1,-2
-5,-1,-2
-1,0,-4
-2,0,-2
0,1,-4
1,2,-4
-1,2,-2
-2,2,0
2,6,0
2,3,0
2,4,-1
2,2,3
-1,1,1
-1,3,3
0,1,3
-3,2,3
-1,3,4
0,4,7
-1,4,3
4,5,6
6,7,4
11,7,3
16,8,3
15,7,1
20,10,6
20,5,5
19,2,1
20,0,5
16,0,2
12,-1,0
12,-1,3
11,-2,0
8,-2,0
5,0,-2
8,1,-2
6,1,-2
3,3,-2
6,2,-3
5,1,0
5,4,-1
5,1,0
0,2,-4
1,2,-1
0,6,-2
1,5,-2
-2,3,-2
-2,2,-4
0,1,-4
-4,1,-3
-5,1,-5
-4,1,-4
-4,2,0
-4,2,-3
-4,3,-2
-4,3,-3
-2,0,-1
-7,4,-3
-5,2,0
-4,3,-2
-2,2,0
-5,1,-3
-2,2,0
-6,1,1
-5,3,0
-4,5,0
-3,2,-1
-3,4,2
-2,3,2
-1,3,1
0,3,2
0,4,2
1,2,2
3,1,2
3,4,0
2,3,1
5,0,1
3,1,1
4,2,0
4,2,0
5,2,-3
5,2,1
3,2,0
2,3,1
2,3,0
4,1,3
1,2,0
1,2,2
-1,3,0
0,1,1
-2,3,1
-1,3,-1
-1,4,0
0,2,-3
0,4,0
0,2,0
0,4,-2
0,3,-1
-1,2,-1
0,6,-2
-2,5,-1
-1,5,-1
-3,4,0
0,4,3
-1,2,0
-2,3,0
-2,3,2
-2,4,0
-2,5,-1
-3,3,-2
-2,5,-1
1,1,0
3,4,0
2,4,0
4,4,0
3,4,0
4,8,2
1,3,0
3,3,0
3,3,1
1,4,0
2,1,0
4,1,1
3,4,0
3,1,0
4,0,4
5,0,1
5,1,0
5,0,0
5,3,0
5,5,-1
5,7,-1
0,7,-4
-3,6,-3
-5,11,0
-7,9,1
-9,9,5
-12,10,5
-12,7,5
-12,9,8
-12,9,10
-7,11,8
-2,11,3
5,12,7
13,9,6
18,8,2
23,10,0
27,3,-4
26,3,-2
25,1,-3
23,1,-5
19,0,-2
13,0,-7
10,0,-5
3,-1,-3
0,0,-3
0,-1,0
-3,-1,2
-5,0,1
-8,-1,2
-5,0,2
-4,1,0
-6,0,0
-7,1,0
-9,-1,-1
-6,0,0
-9,0,-4
-10,-2,-1
-5,-3,-3
-8,-1,-2
-8,-1,-2
-7,0,-3
-6,-3,-1
-5,-1,-4
-4,-3,0
0,0,-1
-2,1,1
-2,3,-1
-1,0,-1
1,4,0
1,6,-1
2,5,0
5,5,1
8,6,1
6,4,2
7,3,2
6,5,-2
5,1,4
4,3,5
3,3,3
3,3,3
0,3,3
2,3,1
1,2,2
6,4,3
6,8,0
7,6,1
9,10,1
10,7,0
12,9,0
10,4,0
10,7,1
7,2,0
7,0,1
4,0,2
2,-1,-1
3,1,0
1,0,-1
0,1,-1
3,4,-1
2,3,-3
2,0,1
1,2,0
1,2,-2
1,1,-1
3,1,-1
1,0,-1
1,-1,0
0,0,-2
-1,-3,2
0,0,-2
-1,-1,1
0,0,0
1,-2,1
1,-2,0
4,-2,0
0,-2,0
2,2,-3
1,1,-1
2,2,-1
1,2,0
2,2,0
2,2,2
2,3,-1
0,3,2
0,1,4
0,2,2
2,0,4
-1,1,0
-2,1,1
0,-1,5
0,1,3
1,0,1
0,0,1
5,1,1
1,2,3
0,0,1
0,2,4
2,0,3
1,0,3
3,2,2
3,1,1
3,0,3
5,-1,3
4,0,5
5,0,1
3,0,1
4,3,0
5,0,2
5,0,-1
5,1,0
2,1,-1
3,0,1
3,1,0
1,-1,-2
0,0,-3
0,-1,0
0,0,0
-2,0,0
-3,2,1
-2,-1,2
0,0,0
-3,0,0
-3,0,0
-4,0,0
-2,0,0
-7,2,-1
-5,2,4
-3,0,1
-3,-1,1
-4,2,2
-2,3,0
0,1,0
1,0,0
3,2,0
2,2,-1
9,0,0
6,-2,1
7,0,3
3,-2,2
5,0,3
4,0,2
3,-3,1
4,-3,0
2,-4,-1
2,-1,1
3,-3,2
2,0,0
2,1,2
3,-3,0
4,-3,3
5,-1,2
8,0,0
6,3,-2
5,4,0
2,6,-2
-1,4,0
-6,5,-1
-9,4,0
-12,3,3
-12,3,5
-14,5,11
-14,4,10
-13,3,14
-8,5,12
-3,5,7
7,4,6
17,3,5
20,2,1
27,0,4
27,1,-2
27,-3,-3
26,-4,-2
22,-1,-2
16,-3,-3
11,-2,-1
5,-1,4
3,0,0
0,0,2
-4,0,6
-7,1,4
-7,1,3
-9,5,1
-4,3,4
-3,1,4
-4,2,0
0,0,1
-1,1,0
0,0,-1
-1,-4,0
0,-2,1
-1,-2,-1
-3,-5,1
-2,-4,2
-1,-4,0
0,-5,0
-2,-3,0
-1,-2,1
0,-1,1
0,1,3
1,3,2
1,0,2
1,3,0
2,3,0
1,2,3
5,3,2
1,4,2
2,4,4
0,4,2
-2,6,3
-3,1,4
-1,0,3
-1,2,5
-2,4,5
0,4,7
3,4,5
3,4,7
4,5,4
11,5,6
12,5,1
19,7,5
19,2,2
18,4,3
20,0,5
16,0,7
12,0,3
11,-5,6
6,-4,5
4,-3,3
4,-2,5
4,-3,3
3,1,3
5,0,0
5,2,3
6,4,3
6,5,4
9,5,3
7,4,5
9,4,4
7,3,3
8,-1,5
6,-2,3
5,-2,3
4,-2,1
4,-4,1
3,-6,-2
3,-6,-2
4,-4,0
2,-3,-5
6,-2,1
6,-4,-1
5,-1,0
5,3,-3
3,4,0
3,4,0
3,6,3
1,7,2
0,6,2
1,6,3
-2,7,1
-2,4,4
-2,2,5
-5,4,4
-4,0,1
-3,2,0
-3,1,1
1,2,0
-3,0,1
3,0,0
0,1,0
0,2,1
0,5,2
0,3,3
1,5,5
0,4,4
1,3,5
5,5,7
2,3,5
1,2,6
4,2,6
4,2,6
3,4,2
7,0,5
7,4,1
6,3,3
7,1,-1
8,1,1
7,5,-1
6,3,0
9,4,-1
4,5,0
4,0,0
4,1,-2
3,0,1
2,0,1
1,-1,-1
3,-1,0
0,0,-1
0,-1,-2
0,-1,-3
0,-1,0
2,-3,-3
0,1,-3
1,3,-1
0,1,-4
2,4,-4
5,2,-2
7,1,-1
7,7,-5
5,7,-5
0,9,-2
-1,10,-4
-8,7,-5
-9,4,1
-17,7,5
-20,3,12
-21,4,9
-23,2,13
-16,3,14
-11,4,9
-2,4,12
7,2,7
17,5,2
25,5,2
32,2,0
33,0,-2
33,0,-4
34,0,-2
28,-4,0
23,-3,-3
13,-2,-3
10,-3,0
4,-2,3
0,0,3
-3,0,3
-8,1,3
-8,0,5
-8,1,4
-7,2,4
-5,2,2
-4,2,2
-3,0,3
2,0,1
-2,0,1
1,0,-1
-1,0,1
-1,0,-1
-2,-2,-1
-2,-5,0
-2,-3,-1
-2,-4,0
-5,-4,-1
-4,-3,0
-1,1,-1
-2,0,1
-3,1,0
1,2,0
0,1,0
2,4,0
2,3,-1
2,4,1
4,3,0
7,5,0
3,5,1
2,3,2
2,5,-1
-2,1,1
0,5,4
1,7,3
-2,4,6
1,7,5
7,6,7
7,7,4
13,7,3
12,8,2
15,7,2
18,7,2
17,5,3
16,0,3
13,1,0
10,-2,1
10,-1,6
8,-2,1
6,-1,0
6,-2,0
4,-1,0
4,0,0
5,1,-2
4,3,0
6,3,0
6,0,0
3,2,0
5,3,-2
7,3,-1
5,2,0
5,3,0
4,0,0
2,4,0
3,2,-1
0,1,-2
0,0,-2
1,1,0
1,1,-3
0,1,-2
0,2,-3
2,0,-4
2,3,-3
-1,3,-4
0,1,-2
-2,5,-2
0,4,-2
-1,3,-4
-4,4,-2
-2,2,0
-2,4,0
-2,2,0
-4,2,3
-2,3,2
-3,2,1
0,2,0
-2,4,1
0,2,1
4,0,-1
1,2,0
0,3,3
2,4,0
1,4,1
4,6,-1
3,5,1
2,4,0
4,4,1
4,3,0
4,4,0
2,7,2
4,5,2
3,6,1
5,4,0
1,4,-2
4,4,2
4,3,2
4,4,2
3,1,0
3,1,0
5,1,-1
3,2,0
3,2,-1
1,-1,-1
3,2,-3
0,1,-5
0,1,-4
0,2,-4
2,0,-4
1,3,-2
2,4,-2
1,3,0
7,3,0
7,5,-6
5,7,-3
5,8,-3
0,9,-5
-3,12,-5
-5,10,-3
-10,8,-3
-11,7,0
-13,8,3
-15,5,8
-17,5,6
-14,8,7
-13,6,9
-5,7,6
3,8,6
11,6,8
18,10,1
24,8,1
29,6,0
29,3,-4
30,2,-2
26,1,-2
23,0,-3
18,2,-4
11,0,-2
7,1,-2
5,3,0
0,2,1
-1,2,3
-2,2,7
-4,3,3
-6,6,6
-3,4,2
-2,5,1
-1,2,-1
-2,4,0
-1,2,0
-1,0,1
-2,-1,-1
-1,0,-1
-2,0,-2
-3,-3,0
-5,-1,0
-5,-2,-3
-3,1,0
-4,0,-1
-2,0,2
-3,2,-1
-3,4,0
-6,2,0
0,3,-1
-1,4,1
0,3,-1
1,3,2
2,2,0
0,6,0
2,2,-1
2,2,0
0,3,0
-1,1,2
-1,2,1
0,2,2
1,3,5
1,3,3
3,5,3
3,7,6
5,6,5
10,11,-3
12,7,1
14,8,4
14,9,-2
16,8,2
15,7,-2
11,3,2
9,5,0
10,0,1
8,-2,1
7,0,0
3,0,-1
2,3,0
0,0,0
1,3,-2
3,2,0
0,4,0
0,4,-1
0,5,0
2,2,1
-1,3,0
-4,2,-3
-1,3,-1
-1,1,-1
0,2,0
0,0,0
-2,2,0
0,1,1
0,1,1
0,1,2
0,5,1
0,4,-1
0,4,1
2,3,0
2,5,0
4,4,1
2,3,0
1,4,-2
3,2,1
3,4,0
2,2,1
0,1,2
1,3,2
1,1,-1
1,2,2
2,3,2
1,0,2
0,0,2
0,4,0
3,1,2
1,5,1
2,2,1
1,3,2
0,3,0
0,2,0
2,3,2
1,2,2
2,2,2
1,3,2
2,3,2
1,3,2
2,1,1
1,0,0
2,2,0
4,2,3
1,2,0
-1,1,0
3,3,0
3,5,0
1,1,2
1,3,0
0,4,0
2,1,-1
2,4,1
0,4,0
1,4,0
2,5,2
2,4,1
4,3,2
2,0,0
5,2,-2
4,2,-1
3,3,1
4,-1,-5
4,0,-1
2,0,-3
3,-2,-3
3,-4,-2
3,-1,-4
2,-3,0
1,0,-4
0,-1,-1
4,-1,-2
5,-1,-1
2,-1,1
6,2,0
2,3,0
5,6,-1
-1,6,-1
-3,8,-4
-7,8,-1
-8,5,0
-11,6,0
-12,4,2
-14,3,9
-16,6,10
-13,5,14
-9,7,10
-3,7,13
7,6,8
14,7,7
21,6,0
24,5,0
31,4,2
32,-1,0
28,1,0
28,-3,0
25,-3,2
18,-5,0
11,-5,0
9,-8,3
5,-6,4
0,-3,3
0,0,1
-4,-2,5
-1,0,6
-1,3,6
-2,-1,2
-1,3,2
0,0,0
-2,4,0
-3,0,-4
-5,0,-6
-5,0,-4
-6,1,-3
-7,-2,-5
-10,-3,-4
-11,0,-3
-13,-1,-5
-8,0,-3
-13,-2,-4
-10,-1,-3
-10,-1,-5
-9,-4,-6
-9,0,-6
-10,0,-4
-6,3,-4
-5,0,-2
-4,2,-3
-1,1,-3
-1,4,0
0,2,0
0,1,0
-5,4,2
-7,2,0
-3,1,2
-3,2,1
-5,0,1
0,4,2
1,6,1
0,2,1
3,7,0
5,6,0
14,6,1
13,2,0
14,7,2
16,1,6
13,1,2
12,-1,3
11,-4,4
5,-3,4
6,-2,2
7,-2,7
6,-3,2
4,1,3
3,0,1
5,1,0
4,1,0
6,4,3
6,3,5
7,1,2
6,2,1
8,2,1
10,-2,3
9,-3,1
6,-3,2
8,-4,3
8,-4,0
8,-4,1
6,-2,1
8,-3,1
4,-1,0
5,-1,1
6,1,-1
4,-1,0
4,-1,0
3,0,0
1,0,-1
0,0,-2
-1,0,0
-2,5,2
-3,0,4
-5,2,4
-5,1,0
-7,3,3
-3,1,6
-1,2,3
-2,2,3
-1,2,4
0,-2,4
-1,3,4
0,1,3
4,2,3
2,0,3
1,0,4
5,0,1
2,0,5
3,0,3
4,0,5
5,0,5
7,0,3
7,0,7
9,1,5
6,1,5
8,-1,3
6,1,6
9,2,4
7,-1,5
6,0,5
5,2,3
9,0,5
5,0,3
6,0,3
6,3,3
7,3,6
4,2,2
7,1,4
5,3,4
2,4,2
3,4,2
2,3,4
4,1,4
0,2,1
1,0,2
1,-1,2
1,1,3
0,-1,0
0,-1,-1
-1,-2,0
-1,-1,5
2,0,3
0,0,0
3,2,2
3,4,1
7,5,5
6,4,1
9,6,1
8,8,-2
4,7,-3
2,7,-3
-2,7,0
-5,7,1
-8,3,7
-13,3,10
-13,5,10
-16,1,15
-13,6,14
-4,4,15
4,6,12
13,5,10
20,3,7
27,3,3
34,2,1
36,0,1
33,-1,-1
29,-2,0
24,-4,-1
18,-5,-3
10,-5,1
7,-3,2
0,-1,2
-5,-1,3
-5,1,5
-6,3,7
-8,3,5
-7,1,4
-5,7,5
-7,4,2
-9,1,5
-1,0,4
-4,3,4
0,3,1
0,0,1
0,0,2
2,-6,0
0,-3,0
0,-2,2
0,-4,0
2,-2,1
0,-3,0
0,-2,1
2,-3,2
-1,0,2
0,-1,2
-1,1,4
-1,0,3
-2,2,3
0,2,0
3,3,2
1,4,2
-1,3,1
-2,1,1
-4,2,1
-3,1,5
-2,1,1
-4,2,3
-1,1,2
-2,6,4
2,3,5
5,7,4
7,6,4
11,8,3
13,4,1
17,5,1
15,4,1
17,1,0
12,0,2
9,-3,0
8,-2,1
7,-3,1
4,-4,0
1,-5,0
1,0,-2
3,-1,0
3,1,0
3,1,1
2,1,-2
3,4,-1
6,2,-1
8,1,4
7,1,0
5,0,1
6,-1,0
5,-1,0
3,0,0
3,0,-2
3,-4,-2
3,-2,-1
2,-1,-1
3,-1,0
4,0,-3
5,-2,-1
4,1,0
4,-2,-1
3,-2,0
4,0,-3
4,0,-1
0,0,-1
2,1,1
-3,0,1
-2,0,1
-3,2,0
-6,3,1
-9,3,2
-6,0,2
-9,0,0
-7,2,0
-4,-1,1
-3,0,0
-3,0,0
-4,3,-1
-3,1,0
-2,0,1
-1,2,2
1,0,1
1,0,3
4,5,2
2,2,0
2,2,2
5,1,2
7,0,3
6,2,5
10,0,2
9,0,2
11,0,2
11,3,2
10,0,3
11,2,1
11,4,0
10,2,0
8,2,2
6,0,1
6,1,0
5,1,-3
4,-1,0
4,1,0
4,0,-1
3,-1,0
4,0,-1
4,-1,-1
5,1,-1
6,1,0
6,2,-3
4,4,-3
5,5,-5
4,10,-6
0,7,-9
-2,11,-7
-5,10,-8
-9,9,-4
-16,7,0
-19,8,3
-20,8,7
-20,8,10
-18,5,11
-13,7,10
-5,7,7
2,6,6
12,6,2
17,5,0
23,6,-7
26,5,-5
24,2,-4
23,1,-8
20,-1,-4
19,0,-4
9,-1,-4
6,-1,-4
0,0,-3
0,1,0
-5,3,2
-7,4,4
-10,1,2
-9,3,2
-6,3,4
-8,3,3
-3,3,2
-1,4,4
0,4,-2
2,3,0
3,4,-4
4,2,-3
1,-1,-1
3,0,-4
2,0,-2
0,-3,0
2,-1,0
3,-1,-1
0,-2,-1
0,3,-1
0,0,0
0,1,-1
-3,2,-2
-1,4,2
-2,4,0
-3,4,0
0,5,0
1,5,1
1,7,0
1,5,1
1,4,0
3,5,2
1,4,-1
0,6,1
1,3,2
1,6,1
3,8,3
3,10,-3
5,8,1
12,9,1
16,8,2
16,7,-1
20,8,-1
19,3,0
18,5,-1
18,3,-3
14,2,0
14,1,-1
12,0,-4
7,1,0
6,1,1
5,1,-1
3,2,0
2,2,-1
4,2,-2
0,4,-2
3,3,-3
1,3,1
2,2,0
3,0,-2
-1,3,1
2,0,1
3,2,0
3,0,-2
1,1,-1
0,1,-1
-2,1,-2
0,0,-2
0,3,1
-1,6,-3
0,4,-1
-1,4,-1
-3,5,0
-1,4,0
1,5,0
3,6,0
2,5,1
3,5,0
2,2,1
5,6,0
2,4,0
2,5,2
4,1,-1
3,2,1
2,4,0
3,2,0
1,0,1
3,2,4
2,1,5
0,5,2
1,0,4
0,5,3
0,6,2
-1,6,0
-1,4,-1
0,6,1
1,4,2
2,3,2
1,6,1
2,3,0
1,5,3
5,4,-1
4,3,1
3,2,0
3,3,0
4,6,-1
3,4,-2
0,1,-1
-1,4,0
0,3,-4
0,4,2
-1,3,0
1,3,0
0,4,0
0,6,2
3,2,2
3,5,1
2,1,2
0,2,0
3,3,0
0,3,3
1,1,0
4,-1,1
5,1,0
1,1,-3
3,3,-1
3,1,-3
4,0,-3
5,0,-3
4,1,1
7,0,-1
7,2,-5
9,3,0
9,6,0
8,5,-1
5,9,-1
3,9,-5
0,7,-3
-2,6,-3
-7,7,-3
-9,7,-2
-12,9,2
-14,7,7
-16,6,7
-11,4,11
-9,7,9
-3,8,8
1,10,5
8,10,4
13,9,1
19,8,3
22,8,0
22,3,-2
22,0,-1
24,0,-3
20,0,-5
12,-1,-3
12,-2,0
7,0,1
2,-1,3
0,-1,1
-2,1,4
-3,0,3
-2,1,4
-3,2,3
-6,2,2
-5,4,-1
-1,3,-1
-2,3,2
0,0,0
0,-2,-1
-3,0,-6
-1,0,-3
0,-2,-1
-2,-4,-5
-3,-6,-4
-5,-4,-2
-3,-1,-2
-2,-3,0
-6,0,-1
-3,0,0
-5,1,-2
-4,1,2
-6,3,1
-5,3,4
-3,3,3
-1,5,3
1,4,4
3,0,0
7,4,3
7,2,3
6,4,1
6,0,-1
7,-1,3
7,1,0
6,1,2
5,0,1
4,1,1
6,4,5
4,6,1
7,2,2
7,9,2
10,7,0
10,7,0
9,6,0
8,2,0
7,0,0
6,-1,0
3,-1,3
2,-1,2
4,-4,0
3,-3,1
0,-1,0
2,-1,-1
0,-1,0
0,-1,-1
2,0,3
2,0,0
1,-1,0
3,0,2
5,-2,0
4,-2,5
7,-3,0
7,-5,1
6,-3,3
5,-4,0
8,-2,1
3,-2,0
4,0,-3
5,1,0
6,0,1
4,2,0
5,2,-2
3,4,2
2,3,-2
4,4,2
5,3,2
2,2,1
0,0,3
0,0,5
1,1,1
-1,-1,1
0,-2,3
-1,0,5
-1,-2,3
-4,-1,2
-1,-1,4
0,0,3
0,1,3
2,0,7
0,1,0
0,0,6
1,2,2
4,3,5
0,3,5
5,2,4
2,2,2
3,3,1
3,3,1
4,0,0
5,0,2
3,1,0
2,1,1
1,1,1
5,-1,3
3,1,2
3,1,0
4,-1,5
2,-1,5
4,0,3
2,2,0
2,1,4
4,0,6
3,0,1
2,1,5
2,0,2
2,-1,4
3,0,1
0,-1,2
-2,0,1
0,0,2
4,0,3
0,2,0
1,-1,3
1,1,1
0,0,2
1,1,3
1,-2,1
3,2,6
2,0,4
0,0,2
3,4,0
3,1,4
4,2,3
6,2,2
7,2,2
8,2,1
9,0,1
6,0,3
7,1,1
5,0,2
5,-1,2
6,0,-1
3,0,0
3,-1,4
0,-3,1
2,-3,2
1,-4,1
2,-4,6
4,0,3
2,0,0
4,4,3
5,4,0
5,3,0
9,5,-2
8,6,-3
4,8,-4
1,10,-4
0,8,-3
-5,8,0
-8,8,4
-13,6,9
-18,6,10
-16,6,15
-13,5,15
-9,5,10
-2,6,10
7,3,9
12,5,4
20,1,3
24,3,1
27,0,-2
26,0,0
22,-1,-2
21,-2,0
12,0,-2
8,-1,1
3,0,2
-3,2,2
-3,2,4
-9,2,9
-10,5,6
-9,4,8
-9,4,7
-7,1,6
-7,0,6
-4,-2,2
-2,0,3
-2,-2,1
1,-5,2
2,-2,1
2,-4,0
4,-6,0
4,-5,2
6,-4,5
7,-4,4
7,-1,1
5,0,2
8,1,3
6,3,4
7,2,3
9,2,5
8,2,4
7,5,2
6,2,3
7,3,3
6,5,0
10,3,2
8,3,2
5,1,0
3,0,1
0,2,0
-2,1,0
-3,0,4
-4,2,1
-2,2,2
-4,2,3
-2,4,4
2,5,4
3,6,1
11,6,-1
12,4,1
10,5,2
13,0,4
8,1,-2
9,0,1
9,-4,1
6,-2,0
2,-1,4
3,0,2
4,-2,1
0,0,1
2,0,0
4,4,-2
2,0,-1
4,3,-1
6,5,0
9,1,0
6,1,2
8,1,1
6,1,0
6,1,0
6,-1,5
1,0,1
2,0,1
2,-1,0
2,0,2
1,-1,0
2,0,0
1,-3,-1
-1,1,0
0,0,-1
5,2,0
1,-1,0
4,2,-2
2,0,-1
4,2,1
2,2,-1
0,3,0
-1,1,1
0,-1,1
-1,3,3
-3,-1,2
-2,0,3
-3,-2,3
-4,-1,1
-5,-2,1
-5,-2,1
-5,-1,-1
-6,-2,3
-5,-1,-1
-6,-3,2
-4,-1,1
-3,0,2
-2,0,2
-4,0,4
-2,1,2
-3,3,4
1,2,5
0,2,2
0,3,0
1,4,1
0,2,3
1,2,3
1,-1,2
3,1,3
3,1,4
4,2,4
5,1,3
5,2,3
10,1,2
8,3,0
7,4,-1
7,3,0
9,4,3
7,4,2
7,3,2
5,3,-1
5,0,0
5,1,2
3,2,1
3,-1,-2
7,-1,1
3,-3,0
3,-1,-1
3,0,-1
3,1,-1
3,0,-3
5,0,-3
10,1,-1
6,3,-3
5,4,-1
6,6,-5
5,6,-6
1,8,-9
-2,10,-10
-4,8,-5
-9,11,-4
-12,8,0
-17,7,2
-18,5,8
-20,8,7
-16,9,9
-11,2,8
-2,3,9
2,5,6
11,4,1
16,4,2
22,2,-4
27,3,-4
29,0,-4
28,-1,-6
23,-1,-8
19,-4,-9
13,-3,-7
9,-3,-5
4,0,-3
0,0,-3
-1,-1,0
-7,0,0
-6,2,1
-9,2,0
-9,6,1
-8,4,-1
-8,0,2
-9,2,-4
-7,2,-2
-5,-1,0
-4,-1,0
-5,0,-2
-3,-4,0
-6,-3,-1
-6,-3,-3
-4,-2,-3
-1,-4,-2
-3,-1,-4
-3,2,0
0,1,-2
-1,8,-1
-2,5,-2
1,5,0
3,4,2
2,6,0
1,4,1
4,6,2
5,6,2
6,4,1
6,3,1
6,0,3
4,1,3
3,2,3
3,3,2
2,5,0
2,4,4
1,3,1
1,4,4
4,7,4
6,6,4
10,6,2
13,8,3
15,9,1
16,7,2
15,4,1
10,5,0
12,3,3
9,0,3
5,1,3
2,2,0
2,5,2
-1,3,4
-2,6,0
-3,3,3
-2,2,2
-2,2,2
1,6,5
-1,4,3
3,5,0
1,3,4
4,3,0
3,0,0
3,1,-1
1,0,-1
2,1,-2
0,2,-2
-2,2,-2
-4,0,0
-7,3,-2
-5,4,-1
-8,4,0
-9,6,-3
-10,4,-1
-11,6,-1
-11,6,0
-11,7,-2
-10,6,-3
-7,9,-3
-8,4,-2
-5,4,-4
-4,2,-3
-4,2,-3
-4,4,-4
-4,2,-3
-6,0,-3
-2,1,-6
-3,4,-1
-1,4,0
2,5,0
2,8,0
1,15,1
5,6,0
6,10,0
6,7,3
9,7,4
13,9,2
14,9,1
20,9,3
20,7,0
22,9,2
25,6,0
24,7,0
24,6,1
25,6,1
24,5,2
21,2,3
18,0,0
16,-1,0
12,1,1
11,1,2
8,3,1
4,2,-1
6,2,3
2,3,0
1,5,2
0,5,0
3,1,1
4,5,0
3,4,1
3,2,0
3,3,0
2,2,-1
1,2,-1
0,0,-2
4,1,0
0,2,-4
2,0,-1
1,0,-2
-1,0,-2
1,-2,-1
2,-1,-2
2,-1,0
4,2,-2
4,2,-3
4,4,-2
5,4,-3
2,7,-3
1,4,-2
-1,7,-2
-4,10,0
-5,7,-3
-8,5,1
-9,8,4
-14,9,5
-15,7,7
-12,8,8
-10,10,11
-5,9,9
0,10,10
5,10,5
14,9,4
21,9,6
25,8,1
28,6,-1
31,2,-2
26,2,-4
24,-1,-4
18,-2,-1
16,-3,-1
12,-4,0
5,-1,0
1,-4,4
-2,-2,5
-3,-3,6
-4,-3,1
-5,0,2
-4,-2,4
-2,-2,3
-2,-1,2
-1,-1,0
1,-3,-1
1,-2,-4
1,-4,-3
3,-3,-5
2,-5,-2
3,-7,-3
0,-9,-2
-3,-6,0
-3,-7,-1
-4,-5,-4
-2,-5,1
-4,-2,1
-4,-2,2
-5,0,3
-9,3,0
-5,3,4
-5,1,1
-5,5,2
-4,2,3
-1,1,5
1,0,6
2,0,5
3,0,5
3,0,4
2,2,6
3,-4,5
3,0,6
4,1,6
5,4,7
6,3,6
7,3,5
13,6,7
15,7,5
16,5,4
18,5,4
19,6,3
17,6,4
18,2,4
16,0,5
12,0,6
8,-2,5
7,-4,3
5,-4,4
4,-2,3
2,-2,2
4,-2,0
0,-1,4
0,-2,6
0,-2,5
0,0,5
2,0,0
2,0,3
4,0,3
5,-1,4
7,0,2
3,-1,3
6,0,2
5,0,2
5,2,3
4,-1,3
3,1,0
4,-1,3
3,0,-2
5,0,0
7,0,0
5,1,-2
4,0,-1
5,-1,-1
2,-4,-1
1,-4,0
0,-2,-1
-1,0,-1
-3,-1,0
-4,0,3
-5,2,4
-6,2,3
-2,2,4
-6,5,8
-4,3,7
-1,8,5
1,4,8
3,1,10
3,2,8
6,1,9
9,-1,7
9,-4,4
13,-2,8
11,1,4
14,-2,6
13,1,4
14,-1,2
15,-1,4
12,0,0
12,-1,2
7,0,0
6,0,1
4,1,1
3,0,-1
0,0,0
-2,1,1
-4,0,-4
-3,0,-1
-6,0,-1
-9,1,-1
-9,2,0
-8,0,0
-9,0,0
-8,3,0
-7,1,-1
-3,1,0
0,1,-1
0,1,-1
0,2,0
4,5,1
2,3,-2
6,3,0
8,4,0
11,4,0
10,-1,-1
11,0,-2
9,2,-2
6,-1,-1
9,-2,0
8,-3,2
8,-2,3
7,-4,2
6,-4,3
6,-2,4
5,-1,2
3,-3,3
3,0,2
2,2,5
4,2,3
3,3,1
4,4,1
5,8,2
7,9,0
2,13,0
0,11,-2
-4,12,0
-7,11,6
-10,12,9
-9,6,12
-14,6,10
-15,8,16
-12,7,14
-4,8,12
2,8,8
10,7,7
19,4,2
24,0,0
25,-2,-5
26,-5,-4
24,-6,-1
20,-8,0
13,-12,4
10,-9,2
2,-5,3
-1,-2,2
-4,4,1
-8,10,0
-7,10,2
-8,12,-1
-10,13,0
-11,12,1
-6,10,-1
-5,5,1
-2,2,0
-3,0,2
-3,-2,2
-2,-4,0
-1,-6,1
-1,2,0
0,5,-2
-2,3,0
-2,-2,1
-4,-3,-3
0,-8,0
-3,-9,2
-2,-8,0
-1,0,2
-2,0,4
-1,5,1
-1,6,4
2,6,8
1,5,1
3,5,4
3,4,2
4,3,1
4,1,-2
6,0,-3
3,-1,-2
1,-2,0
-1,-3,0
-1,-2,0
2,-2,4
0,0,5
2,1,5
4,0,7
11,0,7
12,5,4
16,1,5
16,0,6
17,-3,6
16,-4,4
16,-7,-1
12,-8,-1
9,-13,-4
10,-15,-2
6,-12,-8
0,-13,-5
0,-11,-4
-3,-11,-7
-3,-8,-1
-1,-10,-4
-1,-8,-3
-1,-5,0
1,-6,0
1,-7,0
-1,-8,-3
3,-7,0
1,-5,0
2,-5,1
-1,-7,0
-2,-12,-1
-1,-7,0
-3,-12,0
-3,-12,0
-5,-12,0
-3,-12,1
-3,-13,-1
0,-11,0
1,-8,0
3,-9,0
1,-9,0
2,-6,1
1,-3,0
0,-1,2
4,-2,2
3,-3,1
4,-4,4
5,-10,4
2,-6,3
2,-4,-1
4,-6,4
4,-8,3
3,-7,3
3,-5,4
6,-6,2
11,-6,5
9,-1,5
11,2,2
15,9,1
16,12,4
17,13,4
19,18,5
18,18,2
18,19,2
19,21,1
16,20,5
16,17,3
13,22,4
12,20,3
12,19,3
10,16,4
8,15,6
6,17,4
8,18,3
5,19,1
3,19,2
2,21,4
0,21,3
2,20,0
3,21,3
2,21,-1
2,20,0
4,21,0
3,16,0
2,14,-2
3,16,-5
3,14,-3
3,14,-1
-1,14,-2
5,15,-2
4,15,-4
4,20,-1
3,20,-2
3,21,-5
6,24,-7
5,25,-7
2,24,-8
1,25,-7
-1,26,-6
-2,23,-6
-8,20,-1
-10,21,-2
-13,14,4
-21,8,6
-21,6,11
-20,1,14
-14,-5,14
-10,-8,13
0,-8,7
9,-14,3
13,-16,-1
17,-18,-5
22,-21,-7
20,-24,-6
19,-25,-8
15,-28,-7
11,-27,-7
7,-25,-4
3,-27,-5
2,-28,-2
-1,-27,-3
-2,-23,-4
-4,-22,-7
-3,-18,-5
-3,-14,-4
-4,-13,-3
-2,-9,-5
-2,-5,-5
-3,-3,-4
-3,-3,-3
-4,-3,-3
-3,-6,-1
-2,-8,-2
-4,-8,0
-7,-11,-1
-6,-12,-3
-9,-14,-4
-10,-13,-6
-13,-12,-2
-13,-6,-4
-12,-6,-5
-15,-2,-3
-16,-4,-1
-14,1,-2
-12,2,0
-11,4,-2
-9,5,-4
-9,3,-3
-10,4,-3
-5,1,-1
-7,4,-4
-3,0,-2
-8,4,-1
-7,-1,-4
-10,-6,0
-10,-4,0
-8,-3,-1
-10,-5,0
-6,-5,0
-4,-5,0
0,-2,2
4,-4,0
8,-8,0
13,-10,2
15,-15,3
18,-17,4
15,-17,2
16,-17,4
16,-19,6
15,-21,1
11,-21,5
12,-19,4
11,-19,1
9,-17,0
12,-14,0
10,-12,-3
11,-12,-2
8,-13,-3
11,-16,0
11,-12,0
10,-12,-1
12,-7,2
9,-5,3
6,0,0
7,1,6
5,1,7
4,0,8
5,-1,9
1,4,7
2,1,3
3,0,6
0,3,3
-1,2,4
-1,3,2
-3,0,3
-4,0,3
-7,-1,2
-11,-1,2
-13,-3,7
-11,-2,4
-12,-4,3
-15,-3,5
-15,-4,10
-16,0,10
-13,-3,12
-9,1,16
-7,2,18
-6,7,17
0,9,18
0,9,19
0,12,18
3,12,22
1,7,21
5,5,20
4,4,19
4,0,18
8,-8,16
5,-4,12
1,-7,11
5,-10,7
6,-12,7
0,-14,4
4,-19,3
2,-22,2
4,-22,0
1,-22,2
2,-23,0
2,-24,2
3,-22,2
5,-21,2
6,-18,0
8,-12,2
10,-8,1
12,-5,2
12,2,2
16,8,-4
18,14,-2
17,19,-2
15,22,-5
13,23,-4
11,21,-2
13,20,-2
10,18,-1
8,17,-1
7,13,-1
4,14,4
2,10,1
-1,8,7
0,5,4
0,4,5
3,7,3
10,9,-1
10,10,3
19,12,-2
23,16,-1
28,14,-3
33,12,0
31,14,-6
28,9,-6
27,6,-8
25,5,-7
20,4,-5
17,0,-5
11,-1,-8
6,-2,-8
3,-3,-4
-2,-1,-5
-2,-4,-8
-7,-2,-5
-8,-1,-8
-11,0,-6
-11,0,-4
-14,0,-9
-14,1,-3
-11,4,-3
-13,2,-1
-13,2,-2
-10,6,0
-14,4,0
-12,3,-1
-10,4,-2
-8,4,0
-9,2,-3
-5,1,-1
-4,2,-1
-5,3,-4
-2,3,-1
-3,5,-4
1,3,-2
-1,8,-5
0,4,-1
0,7,-1
-1,6,-5
1,5,-2
2,7,-1
1,8,-1
1,9,0
1,8,0
1,9,1
1,10,2
3,13,4
0,9,5
2,16,5
3,16,2
5,17,1
12,20,2
12,19,1
14,17,3
16,13,1
15,10,0
13,11,1
16,9,3
13,5,0
16,5,1
14,3,0
8,0,2
8,0,-1
11,2,0
9,2,-2
8,0,-1
7,4,-3
5,6,-3
6,5,-3
6,6,-2
5,8,-2
5,13,-3
6,12,0
7,9,-2
6,7,0
3,8,-2
4,6,1
5,5,1
3,3,1
3,3,-3
1,8,-3
0,8,-3
-2,9,-2
-1,10,-5
-1,14,-4
0,10,-1
1,10,1
