80083
80092
80083
80086
80073
80076
80072
80072
80076
80075
80067
80076
80068
80080
80091
80070
80071
80072
80065
80070
80061
80072
80091
80087
80070
80077
80069
80076
80075
80080
80084
80074
80072
80075
80077
80073
80073
80072
80074
80067
80073
80079
80078
80068
80078
80061
80059
80077
80073
80078
80076
80082
80100
80059
80061
80063
80049
80051
80065
80060
80066
80087
80089
80066
80070
80090
80086
80074
80058
80068
80069
80070
80068
80060
80058
80072
80065
80062
80051
80057
80057
80061
80067
80079
80071
80046
80025
79990
79985
80002
79990
80000
80023
80053
80037
80047
80056
80051
80041
80055
80062
80054
80056
80045
80042
80033
80057
80030
80046
80038
80040
80029
80038
80022
80013
80051
80024
80035
80016
80003
79970
79956
79983
79985
79984
79999
80027
80004
80040
80015
80022
80043
80023
80030
80030
80038
80033
80015
80022
80011
80026
80012
80004
80019
80011
80020
80011
80013
80006
80026
79964
79963
79953
79946
79968
79980
79991
80001
80008
80008
80003
80032
80019
80021
80020
80008
80014
80008
79994
80016
79999
80009
80017
80005
80006
80008
80005
80004
80011
80001
80013
79993
79991
80010
80011
80014
80007
80019
80022
80026
80014
80004
80021
80021
80012
80017
80020
80008
80020
80017
79996
80005
80020
80021
80013
80021
80011
80008
80022
80020
80027
80004
80022
80018
80022
80020
80026
80015
80010
80035
80016
80021
80019
80013
80014
80002
80005
80025
80011
80019
80002
80011
80020
80018
80009
80002
80002
80015
80004
80011
80009
80035
80017
80016
80014
80022
80020
80019
80021
80011
80019
80029
80013
80026
80027
80012
80013
80028
80020
80017
80018
80008
80013
80026
80014
80017
79998
80004
80011
80005
79993
80000
79987
80007
80003
80000
79990
79997
80012
80009
80016
80006
79993
80013
80010
79996
80000
79988
79998
79995
79996
79989
80007
79993
79992
79997
80010
79977
79987
79986
79986
79975
79992
79985
79980
79971
79980
79964
79973
79967
79962
79963
79982
79978
79988
79988
79981
79966
79965
79966
79968
79973
79961
79982
79981
79963
79964
79966
79960
79952
79954
79956
79953
79956
79950
79954
79956
79950
79942
79960
79956
79948
79930
79951
79952
79940
79946
79957
79950
79935
79965
79931
79949
79960
79955
79946
79940
79954
79946
79944
79950
79960
79952
79938
79944
79944
79934
79935
79947
79929
79938
79936
79932
79937
79939
79928
79921
79928
79936
79939
79943
79939
79928
79915
79897
79915
79927
79916
79925
79926
79942
79937
79937
79931
79935
79925
79927
79915
79916
79928
79926
79921
79934
79896
79906
79912
79913
79892
79904
79916
79910
79918
79892
79897
79929
79925
79902
79903
79904
79912
79918
79919
79905
79905
79906
79909
79905
79916
79890
79901
79903
79892
79899
79897
79903
79897
79911
79894
79887
79889
79898
79885
79886
79885
79888
79899
79891
79898
79884
79881
79879
79880
79870
79868
79879
79866
79866
79882
79885
79879
79870
79863
79850
79857
79848
79847
79853
79873
79858
79853
79851
79854
79840
79833
79845
79849
79842
79867
79857
79855
79855
79850
79874
79869
79885
79886
79882
79877
79859
79877
79873
79873
79864
79860
79869
79855
79868
79855
79861
79863
79846
79845
79842
79852
79832
79836
79843
79855
79824
79831
79841
79830
79817
79830
79822
79840
79848
79835
79839
79834
79829
79837
79838
79830
79825
79839
79835
79837
79829
79836
79828
79823
79840
79822
79827
79824
79827
79824
79820
79820
79812
79812
79813
79806
79810
79820
79817
79800
79816
79791
79795
79803
79791
79803
79805
79805
79806
79820
79822
79798
79807
79811
79813
79804
79804
79805
79804
79798
79795
79803
79817
79802
79793
79790
79792
79785
79804
79800
79793
79805
79788
79771
79769
79774
79775
79774
79783
79752
79764
79779
79756
79769
79779
79775
79773
79773
79777
79768
79774
79769
79770
79769
79772
79758
79774
79775
79783
79766
79767
79765
79779
79782
79780
79773
79769
79771
79782
79779
79778
79777
79767
79787
79762
79782
79792
79789
79778
79772
79777
79770
79764
79760
79775
79764
79763
79774
79756
79780
79778
79770
79786
79786
79777
79757
79760
79777
79783
79777
79775
79785
79773
79755
79774
79779
79784
79762
79775
79777
79799
79775
79771
79766
79753
79783
79784
79784
79797
79803
79780
79781
79788
79767
79800
79789
79792
79785
79789
79789
79787
79772
79763
79775
79791
79784
79787
79790
79783
79767
79769
79760
79774
79761
79776
79775
79794
79787
79766
79759
79772
79767
79781
79773
79783
79771
79795
79793
79782
79787
79788
79794
79789
79782
79793
79793
79802
79798
79791
79796
79790
79782
79787
79791
79779
79775
79786
79768
79778
79769
79770
79769
79780
79786
79768
79783
79792
79775
79782
79776
79786
79790
79787
79795
79784
79797
79781
79787
79790
79787
79783
79787
79778
79794
79794
79798
79789
79787
79788
79778
79788
79785
79785
79798
79795
79783
79778
79777
79790
79796
79761
79757
79733
79773
79761
79780
79785
79792
79799
79807
79809
79814
79801
79809
79814
79802
79811
79808
79800
79800
79798
79829
79824
79805
79808
79800
79815
79807
79809
79823
79828
79807
79738
79743
79746
79739
79743
79760
79763
79781
79791
79823
79833
79836
79831
79842
79841
79847
79830
79833
79842
79851
79846
79844
79836
79834
79827
79845
79850
79851
79842
79848
79841
79831
79848
79817
79749
79750
79746
79743
79750
79766
79753
79788
79786
79825
79805
79848
79855
79856
79852
79847
79840
79848
79859
79851
79843
79856
79843
79851
79838
79837
79838
79848
79844
79829
79847
79857
79826
79844
79837
79839
79843
79829
79778
79747
79755
79724
79747
79748
79794
79778
79767
79774
79805
79823
79846
79834
79821
79821
79820
79826
79822
79816
79819
79823
79811
79799
79815
79813
79803
79809
79800
79803
79811
79811
79791
79794
79801
79792
79808
79808
79734
79707
79690
79676
79680
79704
79723
79708
79740
79746
79764
79761
79784
79769
79774
79772
79766
79765
79772
79775
79772
79772
79778
79769
79769
79764
79761
79768
79784
79762
79764
79760
79767
79765
79755
79700
79698
79694
79699
79688
79694
79705
79722
79725
79754
79770
79770
79780
79789
79758
79777
79786
79759
79772
79783
79779
79784
79778
79784
79765
79774
79773
79784
79782
79774
79781
79789
79752
79718
79698
79695
79681
79708
79699
79723
79733
79753
79774
79777
79800
79790
79775
79792
79779
79776
79799
79785
79780
79794
79783
79786
79781
79785
79787
79784
79781
79798
79787
79805
79771
79790
79771
79710
79671
79660
79662
79660
79666
79689
79692
79726
79735
79756
79750
79758
79757
79775
79735
79776
79769
79772
79764
79768
79757
79763
79756
79758
79753
79749
79756
79730
79746
79740
79756
79737
79727
79738
79728
79728
79732
79739
79733
79739
79736
79743
79698
79682
79675
79668
79675
79698
79708
79737
79735
79738
79742
79736
79744
79732
79733
79734
79738
79744
79741
79726
79748
79737
79739
79743
79736
79721
79727
79742
79736
79742
79733
79720
79719
79722
79718
79731
79724
79734
79731
79738
79737
79729
79732
79715
79720
79740
79718
79729
79734
79751
79756
79746
79746
79738
79752
79726
79753
79746
79728
79741
79745
79735
79735
79728
79719
79727
79720
79727
79714
79715
79710
79717
79689
79727
79707
79709
79719
79711
79714
79697
79696
79707
79704
79703
79699
79713
79700
79699
79700
79706
79687
79691
79685
79678
79670
79682
79679
79651
79670
79652
79671
79654
79656
79648
79642
79635
79622
79626
79625
79639
79644
79645
79630
79627
79629
79641
79618
79626
79627
79614
79612
79592
79601
79611
79603
79603
79606
79593
79569
79578
79581
79577
79577
79584
79578
79564
79555
79557
79566
79541
79544
79540
79537
79530
79534
79528
79538
79530
79545
79540
79530
79543
79520
79523
79517
79530
79509
79528
79502
79523
79483
79508
79500
79511
79494
79500
79486
79493
79477
79469
79472
79476
79469
79479
79468
79468
79447
79452
79458
79451
79451
79442
79441
79421
79441
79436
79454
79458
79461
79452
79459
79462
79441
79455
79459
79479
79460
79447
79451
79467
79476
79452
79467
79469
79480
79482
79472
79485
79484
79474
79460
79475
79477
79485
79484
79488
79480
79470
79484
79467
79473
79468
79484
79477
79460
79494
79503
79496
79505
79517
79513
79514
79518
79533
79524
79529
79527
79541
79528
79546
79536
79551
79564
79552
79543
79561
79560
79557
79567
79564
79563
79565
79574
79568
79572
79580
79568
79582
79589
79586
79557
79581
79592
79597
79587
79600
79592
79591
79592
79602
79628
79624
79623
79627
79640
79643
79647
79656
79645
79664
79656
79658
79664
79665
79664
79668
79653
79659
79675
79663
79671
79657
79661
79649
79651
79645
79654
79659
79630
79586
79600
79588
79573
79606
79613
79606
79621
79633
79654
79655
79658
79669
79651
79658
79654
79660
79663
79655
79656
79655
79651
79648
79653
79670
79657
79662
79665
79657
79675
79670
79660
79674
79675
79676
79632
79615
79594
79595
79587
79589
79599
79605
79635
79615
79660
79644
79673
79671
79664
79661
79665
79660
79678
79660
79682
79695
79682
79699
79705
79703
79692
79689
79694
79701
79694
79701
79699
79682
79691
79679
79688
79680
79679
79700
79699
79698
79626
79596
79586
79591
79585
79599
79625
79625
79629
79637
79663
79669
79665
79677
79662
79666
79670
79664
79653
79665
79677
79681
79679
79689
79687
79687
79687
79681
79693
79673
79686
79680
79679
79678
79679
79679
79680
79604
79564
79549
79560
79540
79564
79575
79555
79596
79603
79623
79624
79627
79628
79606
79601
79611
79632
79599
79630
79625
79633
79627
79635
79630
79632
79654
79647
79651
79655
79663
79655
79645
79651
79646
79604
79541
79512
79517
79507
79486
79517
79500
79546
79535
79556
79553
79596
79596
79595
79595
79573
79593
79590
79593
79607
79603
79619
79620
79610
79637
79648
79672
79671
79639
79677
79684
79667
79681
79679
79684
79674
79690
79681
79688
79692
79611
79563
79548
79555
79561
79531
79558
79567
79588
79580
79632
79641
79628
79655
79679
79676
79676
79679
79683
79702
79705
79718
79697
79711
79726
79746
79760
79760
79791
79769
79772
79792
79780
79780
79780
79785
79788
79796
79789
79791
79809
79793
79795
79788
79810
79814
79751
79706
79687
79680
79682
79701
79721
79728
79735
79759
79759
79765
79784
79808
79796
79774
79823
79800
79808
79822
79831
79821
79824
79834
79827
79854
79849
79848
79841
79858
79839
79850
79853
79850
79843
79843
79838
79868
79853
79829
79774
79752
79755
79774
79754
79764
79782
79778
79795
79823
79825
79861
79867
79857
79857
79843
79842
79874
79856
79860
79878
79870
79861
79891
79883
79895
79882
79895
79889
79881
79889
79875
79885
79872
79904
79881
79841
79785
79781
79770
79780
79794
79784
79782
79780
79782
79814
79828
79846
79859
79854
79846
79846
79878
79846
79879
79874
79898
79868
79879
79901
79909
79913
79906
79911
79893
79909
79911
79909
79911
79912
79900
79911
79903
79909
79917
79887
79812
79816
79784
79788
79794
79791
79791
79796
79818
79829
79816
79840
79842
79869
79858
79841
79864
79864
79879
79875
79871
79891
79905
79887
79892
79916
79919
79902
79920
79940
79939
79923
79939
79937
79940
79928
79939
79952
79923
79941
79947
79880
79822
79823
79783
79793
79798
79824
79815
79836
79835
79842
79888
79899
79895
79888
79890
79879
79879
79886
79886
79905
79905
79911
79926
79923
79920
79915
79941
79960
79951
79956
79941
79940
79950
79955
79964
79951
79931
79863
79837
79808
79795
79799
79793
79794
79823
79830
79832
79862
79877
79865
79887
79875
79885
79893
79868
79892
79900
79905
79901
79917
79915
79952
79927
79956
79954
79975
79972
79978
79978
79971
79988
79982
79964
79965
79927
79863
79827
79811
79830
79815
79812
79841
79846
79859
79848
79893
79895
79907
79912
79905
79915
79887
79914
79921
79934
79921
79936
79940
79949
79967
79962
79956
79984
80001
79991
79993
79985
79999
79989
79988
79992
79994
79992
79997
79987
79988
79986
79988
79952
79899
79865
79865
79860
79875
79864
79888
79894
79920
79909
79947
79932
79934
79975
79950
79948
79931
79948
79952
79965
79979
79973
79976
79957
79978
79975
79986
79998
79993
79992
79985
80000
79996
79992
79997
80002
79999
80000
80004
80019
79991
80007
80008
79987
79982
79920
79918
79898
79902
79894
79908
79932
79930
79955
79956
79977
79971
79989
79994
79979
79991
79980
79994
79999
79996
80005
79998
79996
79982
79996
79992
80008
79992
80000
79988
80001
79996
79994
79997
79993
80000
79996
79987
79986
79958
79899
79888
79906
79893
79902
79913
79922
79934
79927
79963
79978
79990
79968
79987
79977
79954
79965
79966
79985
79992
79992
79988
80002
80022
80023
80009
80021
80014
80002
80009
80003
80015
80012
80012
80014
80011
80019
80022
79977
79928
79899
79891
79880
79881
79904
79889
79915
