77167
77177
77182
77187
77182
77182
77194
77218
77212
77227
77220
77244
77251
77249
77258
77226
77190
77097
77069
77065
77052
77070
77076
77079
77104
77110
77130
77159
77167
77166
77173
77149
77161
77171
77172
77179
77183
77193
77200
77209
77240
77228
77244
77230
77140
77089
77046
77037
77023
77042
77040
77067
77095
77116
77126
77147
77143
77158
77174
77154
77164
77180
77167
77177
77187
77206
77204
77208
77218
77238
77236
77198
77126
77061
77032
77045
77046
77055
77064
77095
77106
77145
77153
77175
77169
77163
77171
77157
77169
77180
77186
77167
77184
77198
77202
77208
77199
77174
77139
77073
77029
77009
76992
77014
77047
77070
77075
77095
77128
77139
77139
77138
77157
77145
77155
77156
77142
77159
77194
77187
77203
77211
77200
77186
77127
77044
77030
76984
76992
76980
76995
77023
77016
77033
77067
77094
77083
77104
77110
77098
77099
77098
77119
77116
77130
77129
77131
77129
77153
77133
77085
77020
76953
76944
76919
76909
76927
76952
76962
76984
76990
77007
77021
77036
77044
77046
77037
77046
77077
77039
77054
77058
77059
77060
77068
77065
77080
77017
76952
76906
76862
76855
76859
76857
76875
76890
76917
76938
76951
76966
76972
76967
76966
76973
76994
76985
76987
76998
76999
77001
77015
77040
77040
77027
76996
76931
76883
76840
76826
76846
76834
76850
76876
76911
76918
76956
76980
76981
76982
76980
76991
76995
77002
77020
77008
77032
77028
77042
77061
77046
77030
76965
76909
76860
76857
76858
76856
76866
76901
76932
76972
76973
76975
76994
77002
77007
76991
77026
77016
77013
77046
77051
77071
77087
77081
77074
77032
76950
76913
76890
76882
76893
76879
76905
76928
76953
76982
77003
77002
77007
77016
77029
77023
77041
77047
77041
77057
77071
77067
77067
77088
77085
77065
76997
76918
76900
76888
76887
76892
76896
76919
76921
76952
76957
76979
76985
76993
77007
76983
77002
77016
77021
77013
77038
77035
77043
77062
77064
77061
77079
77045
76971
76918
76863
76871
76862
76880
76896
76894
76931
76930
76954
76971
76988
76994
76968
76962
76981
76993
76978
76982
77012
77015
77031
77033
77023
77037
77055
77020
76949
76890
76846
76844
76839
76864
76841
76874
76886
76899
76926
76940
76953
76943
76939
76951
76949
76934
76961
76945
76943
76967
76976
77000
76991
76975
76983
76941
76884
76830
76793
76794
76799
76803
76832
76857
76871
76893
76908
76941
76920
76924
76928
76934
76933
76950
76957
76961
76978
76962
76949
76957
76967
76956
76891
76835
76793
76762
76785
76782
76799
76805
76832
76834
76874
76873
76882
76889
76879
76872
76892
76867
76911
76888
76906
76921
76911
76944
76928
76922
76865
76795
76746
76726
76701
76709
76732
76744
76749
76755
76785
76821
76831
76838
76836
76839
76851
76863
76863
76857
76887
76891
76887
76900
76910
76918
76943
76907
76851
76789
76751
76733
76725
76746
76759
76777
76780
76799
76853
76827
76855
76860
76881
76867
76878
76870
76890
76888
76890
76884
76894
76911
76927
76948
76934
76908
76855
76812
76770
76764
76757
76779
76777
76785
76803
76818
76850
76867
76874
76882
76895
76887
76895
76899
76921
76909
76923
76933
76943
76954
76962
76956
76955
76881
76811
76773
76775
76762
76799
76802
76823
76842
76863
76872
76903
76917
76905
76910
76903
76917
76932
76939
76927
76968
76946
76971
76977
76972
76952
76892
76840
76798
76798
76792
76817
76825
76822
76839
76868
76878
76904
76880
76905
76901
76913
76906
76916
76928
76926
76941
76939
76952
76982
76967
76929
76887
76817
76792
76783
76779
76801
76831
76836
76862
76877
76892
76914
76907
76927
76909
76912
76919
76936
76924
76927
76935
76966
76961
76962
76967
76954
76874
76826
76798
76789
76794
76811
76817
76825
76845
76870
76878
76892
76906
76913
76916
76902
76914
76916
76926
76929
76934
76965
76934
76969
76991
76981
76941
76875
76820
76777
76764
76778
76771
76797
76787
76802
76840
76854
76872
76866
76866
76877
76887
76885
76880
76905
76883
76907
76908
76923
76927
76944
76941
76891
76856
76773
76740
76747
76761
76763
76803
76796
76824
76849
76877
76883
76892
76869
76879
76876
76877
76889
76906
76903
76924
76901
76918
76920
76908
76873
76804
76761
76719
76708
76732
76744
76763
76778
76782
76806
76812
76804
76825
76829
76832
76852
76841
76830
76842
76868
76864
76885
76890
76895
76863
76773
76721
76703
76666
76693
76715
76700
76729
76745
76779
76818
76826
76822
76823
76821
76835
76824
76791
76768
76786
76767
76785
76769
76790
76739
76629
76593
76559
76515
76373
76323
76371
76308
76219
75974
75845
75710
75658
75657
75655
75820
75835
75836
75814
75907
75977
76038
76064
76132
76205
76268
76257
76362
76577
76689
76713
76730
76719
76760
76772
76770
76788
76766
76754
76739
76727
76694
76693
76699
76736
76875
77031
77065
77096
77138
77152
77138
77144
77117
77003
76917
76869
76833
76803
76833
76824
76877
76976
77028
77064
77079
77109
77139
77146
77151
77150
77161
77143
77169
77196
77194
77224
77242
77228
77204
77150
77127
77100
77094
77107
77131
77160
77153
77177
77179
77216
77226
77249
77245
77243
77227
77230
77251
77271
77271
77263
77274
77280
77269
77218
77183
77136
77125
77127
77155
77151
77172
77170
77191
77218
77234
77239
77242
77245
77241
77269
77269
77265
77274
77270
77266
77257
77275
77258
77250
77196
77167
77137
77154
77156
77154
77171
77172
77200
77198
77210
77224
77219
77228
77218
77240
77244
77242
77271
77279
77298
77315
77311
77310
77292
77266
77263
77212
77216
77231
77246
77267
77278
77290
77296
77333
77347
77350
77359
77353
77331
77356
77363
77362
77363
77360
77377
77370
77398
77402
77349
77315
77279
77293
77275
77274
77276
77280
77293
77292
77301
77289
77304
77302
77289
77300
77293
77295
77281
77297
77305
77301
77299
77325
77299
77321
77311
77300
77250
77198
77186
77180
77204
77208
77186
77208
77212
77216
77237
77234
77258
77255
77252
77234
77256
77240
77235
77229
77232
77240
77238
77239
77242
77257
77238
77240
77256
77248
77186
77142
77123
77106
77117
77115
77130
77133
77152
77157
77156
77184
77165
77173
77181
77179
77169
77165
77163
77157
77166
77164
77183
77175
77200
77199
77191
77195
77199
77200
77189
77163
77108
77098
77079
77086
77113
77082
77107
77117
77129
77126
77139
77133
77161
77158
77128
77136
77135
77133
77127
77131
77135
77149
77146
77147
77146
77161
77142
77133
77107
77073
77047
77044
77040
77058
77037
77057
77057
77084
77087
77108
77122
77113
77101
77107
77091
77103
77091
77090
77095
77090
77087
77112
77104
77103
77096
77050
77029
76994
77017
77021
77050
77051
77056
77070
77073
77069
77088
77095
77083
77081
77088
77092
77094
77077
77074
77068
77097
77109
77088
77111
77100
77097
77038
77011
77015
77012
77016
77033
77033
77061
77057
77073
77070
77094
77097
77099
77109
77086
77085
77108
77114
77134
77126
77145
77131
77128
77144
77107
77099
77065
77028
77021
77032
77046
77036
77046
77048
77055
77075
77089
77085
77090
77120
77116
77104
77114
77122
77125
77125
77136
77138
77158
77161
77163
77162
77156
77155
77135
77098
77062
77050
77050
77061
77060
77082
77086
77094
77100
77091
77118
77115
77125
77119
77128
77123
77134
77142
77150
77135
77145
77144
77144
77157
77146
77179
77183
77178
77147
77084
77085
77081
77061
77064
77063
77063
77073
77089
77096
77095
77113
77122
77130
77111
77092
77106
77109
77085
77097
77107
77090
77114
77117
77098
77128
77134
77146
77086
77052
77026
77017
76997
76979
77000
77012
77024
77016
77019
77029
77038
77057
77038
77060
77050
77046
77048
77030
77074
77054
77041
77057
77054
77068
77057
77066
77048
76979
76957
76953
76939
76950
76942
76971
76954
76965
76975
76990
76987
76990
76988
76988
76978
77004
76999
76994
77003
77003
77009
77001
77005
77024
77000
76981
76939
76896
76901
76903
76884
76919
76929
76927
76938
76961
76963
76961
76979
76962
76969
76991
76961
76971
76962
76974
76992
76973
76971
76994
77010
76979
76934
76897
76894
76863
76876
76862
76870
76890
76895
76897
76921
76927
76945
76938
76916
76933
76943
76938
76954
76939
76941
76946
76952
76962
76949
76970
76966
76945
76904
76883
76847
76859
76851
76853
76864
76844
76852
76875
76890
76884
76892
76914
76895
76904
76902
76902
76911
76909
76912
76923
76924
76907
76920
76922
76926
76940
76931
76891
76828
76790
76776
76770
76770
76759
76751
76773
76786
76770
76773
76761
76773
76760
76749
76740
76723
76708
76700
76669
76694
76670
76637
76632
76661
76636
76623
76633
76632
76621
76580
76516
76497
76479
76459
76456
76475
76485
76477
76451
76464
76472
76483
76471
76461
76469
76454
76446
76414
76427
76409
76421
76409
76411
76412
76415
76423
76399
76403
76357
76323
76294
76270
76269
76264
76275
76277
76286
76272
76291
76304
76317
76314
76282
76286
76303
76286
76287
76299
76306
76316
76312
76299
76316
76315
76318
76323
76279
76235
76219
76193
76197
76206
76212
76212
76221
76233
76243
76240
76255
76266
76267
76270
76263
76263
76266
76292
76286
76274
76263
76275
76277
76293
76298
76269
76219
76203
76184
76174
76164
76195
76197
76200
76214
76230
76250
76248
76261
76269
76265
76269
76253
76256
76260
76277
76283
76266
76269
76279
76287
76292
76301
76290
76235
76202
76175
76175
76174
76165
76179
76198
76185
76214
76233
76237
76248
76255
76255
76247
76254
76254
76247
76254
76261
76271
76272
76264
76285
76279
76264
76309
76289
76277
76248
76186
76166
76170
76152
76154
76156
76170
76187
76183
76215
76213
76217
76233
76223
76225
76226
76234
76230
76237
76254
76237
76259
76242
76227
76262
76247
76257
76247
76269
76224
76189
76135
76130
76139
76132
76143
76149
76167
76178
76187
76207
76199
76214
76195
76211
76204
76212
76199
76209
76229
76244
76229
76235
76236
76247
76268
76264
76255
76259
76227
76181
76157
76136
76124
76147
76158
76179
76183
76202
76207
76234
76237
76242
76256
76235
76253
76237
76236
76249
76243
76280
76299
76301
76303
76317
76312
76343
76302
76259
76224
76212
76193
76207
76217
76215
76224
76222
76250
76266
76302
76309
76291
76309
76310
76319
76302
76304
76305
76325
76338
76335
76329
76343
76355
76351
76320
76292
76259
76247
76249
76249
76263
76274
76288
76300
76303
76330
76330
76346
76344
76346
76366
76367
76345
76372
76395
76389
76391
76371
76397
76406
76421
76416
76375
76317
76284
76287
76288
76302
76304
76311
76320
76317
76340
76362
76357
76378
76358
76392
76381
76382
76383
76392
76399
76422
76412
76402
76413
76429
76429
76437
76457
76436
76413
76344
76320
76306
76302
76322
76303
76305
76309
76329
76351
76365
76369
76373
76382
76378
76386
76361
76400
76387
76372
76388
76384
76371
76387
76402
76422
76414
76418
76440
76446
76433
76400
76347
76331
76315
76307
76345
76314
76331
76335
76366
76375
76390
76405
76400
76412
76398
76377
76381
76394
76401
76402
76407
76414
76441
76437
76448
76454
76459
76465
76459
76507
76484
76448
76408
76356
76370
76336
76383
76368
76376
76387
76388
76403
76414
76433
76432
76442
76458
76426
76440
76433
76443
76436
76457
76451
76459
76447
76438
76477
76463
76471
76514
76485
76436
76398
76388
76363
76368
76365
76386
76382
76390
76398
76428
76448
76436
76437
76464
76449
76447
76455
76457
76456
76465
76466
76473
76499
76483
76502
76498
76497
76452
76427
76367
76362
76367
76365
76390
76414
76424
76423
76436
76459
76460
76474
76464
76469
76467
76476
76489
76489
76490
76528
76538
76550
76563
76577
76552
76533
76460
76430
76378
76403
76392
76402
76400
76412
76440
76439
76454
76476
76492
76490
76492
76490
76478
76495
76481
76492
76499
76494
76504
76528
76529
76534
76531
76525
76466
76435
76407
76397
76392
76391
76411
76427
76428
76431
76451
76476
76476
76496
76500
76495
76503
76485
76487
76479
76492
76502
76482
76502
76503
76523
76519
76510
76514
76484
76435
76394
76386
76386
76367
76385
76393
76400
76413
76448
76441
76462
76457
76470
76469
76465
76477
76463
76486
76469
76482
76487
76494
76493
76498
76479
76501
76519
76511
76526
76512
76429
76400
76373
76360
76356
76351
76382
76357
76356
76382
76409
76405
76417
76418
76412
76413
76399
76410
76410
76382
76420
76411
76412
76429
76434
76453
76446
76442
76437
76461
76434
76359
76328
76312
76307
76293
76310
76304
76309
76326
76353
76344
76378
76364
76363
76370
76366
76362
76360
76354
76380
76362
76384
76395
76396
76401
76401
76404
76405
76375
76328
76277
76282
76281
76241
76263
76274
76285
76303
76276
76313
76339
76323
76365
76354
76342
76352
76352
76348
76339
76360
76380
60954
76374
76351
76376
76353
76323
76283
76257
76244
76247
76246
76262
76255
76280
76296
76315
76326
76324
76331
76352
76348
76342
76358
76367
76360
76373
76368
76384
76387
76386
76400
76407
76369
76322
76282
76267
76279
76282
76269
76288
76291
76285
76303
76329
76315
76335
76336
76345
76347
76341
76345
76345
76353
76366
76366
76357
76382
76380
76355
76400
76377
76355
76298
76254
76236
76217
76224
76234
76249
76235
76230
76269
76272
76263
76296
76273
76291
76270
76275
76265
76296
76284
76289
76295
76311
76319
76303
76313
76298
76304
76308
76320
76273
76263
76214
76169
76140
76160
76171
76169
76185
76195
76213
76214
76230
76243
76252
76222
76232
76237
76221
76251
76222
76203
76217
76234
76232
76226
76236
76238
76227
76245
76247
76215
76183
76126
76100
76075
76077
76087
76096
76095
76107
76095
76118
76135
76118
76147
76140
76102
76118
76102
76125
76113
76135
76141
76136
76134
76146
76149
76150
76170
76137
76106
76034
76040
76026
76014
76030
76038
76054
76061
76074
76095
76116
76127
76147
76113
76129
76128
76129
76123
76152
76169
76152
76160
76164
76169
76192
76190
76137
76075
76079
76020
76040
76054
76054
76070
76075
76078
76100
76130
76121
76148
76144
76134
76131
76132
76150
76134
76152
76157
76164
76162
76179
76191
76195
76199
76181
76115
76090
76077
76051
76033
76050
76035
76062
76072
76072
76090
76119
76107
76146
76126
76125
76134
76150
76124
76154
76160
76167
76158
76166
76175
76174
76151
76177
76187
76173
76117
76045
76031
76017
76016
76004
76016
76022
76028
76025
76027
76067
76081
76063
76090
76100
76089
76082
76069
76084
76098
76109
76116
76123
76139
76131
76135
76156
76142
76136
76101
76053
76011
76002
76009
76019
76027
76038
76049
76057
76074
76101
76096
76117
76105
76114
76109
76115
76100
76117
76125
76139
76134
76140
76146
76161
76151
76147
76168
76122
76075
76052
76011
76015
76034
76028
76054
76057
76072
76099
76127
76121
76144
76131
76128
76119
76125
76130
76164
76166
76176
76179
76188
76172
76206
76197
76165
76123
76073
76072
76043
76061
76046
76060
76075
76093
76095
76111
76129
76127
76156
76149
76151
76141
76155
76150
76158
76172
76164
76178
76178
76177
76190
76204
76184
76151
76095
76063
76049
76043
76053
76046
76049
76047
76080
76092
76125
76128
76128
76133
76131
76148
76133
76151
76147
76137
76163
76180
76154
76159
76184
76196
76196
76191
76167
76108
76053
76049
76045
76049
76041
76052
76066
76080
76109
76124
76131
76144
76127
76125
76136
76129
76158
76160
76154
76157
76144
76155
76168
76179
76190
76189
76189
76174
76105
76068
76049
76044
76051
76059
76039
76073
76080
76103
76107
76120
76125
76108
76133
76123
76146
76146
76143
76145
76162
76180
76173
76178
76185
76192
76196
76178
76149
76093
76056
76041
76043
76043
76076
76066
76091
76113
76119
76152
76143
76176
76160
76169
76182
76169
76165
76176
76176
76189
76208
76187
76201
76193
76209
76179
76121
76087
76067
76045
76040
76057
76067
76091
76092
76102
76142
76128
76123
76154
76151
76153
76134
76144
76164
76155
76178
76175
76166
76194
76206
76194
76207
76202
76138
76076
76068
76046
76058
76038
76053
76081
76064
76099
76107
76124
76125
76149
76147
76144
76139
76151
76126
76167
76157
76179
76160
76193
76174
76188
76189
76214
76222
76222
76201
76130
76068
76079
76069
76048
76073
76088
76090
76114
76114
76108
76120
76144
76120
76145
76100
76124
76136
76119
76120
76104
76132
76107
76116
76122
76114
76126
76150
76126
76061
76036
76015
75980
75988
75988
76009
76004
76028
76039
76061
76045
76066
76052
76065
76083
76062
76044
76075
76084
76081
76094
76097
76110
76098
76139
76141
76135
76112
76057
76037
75997
75993
76016
76036
76035
76038
76052
76065
76080
76106
76125
76115
76116
76119
76118
76122
76118
76129
76132
76143
76146
76146
76163
76146
76114
76052
76023
75977
76002
75983
75996
76013
76021
76029
76044
76067
76065
76082
76091
76077
76070
76081
76075
76122
76111
76106
76098
76111
76120
76129
76089
76055
76001
75981
75975
75963
75959
75971
75974
75972
75991
75997
76015
76005
76024
76027
76041
76031
76025
76028
76033
76014
76036
76015
76035
76036
76035
76041
76043
76001
75938
75897
75859
75866
75860
75861
75865
75883
75881
75900
75904
75927
75910
75928
75903
75891
75911
75902
75883
75895
75893
75900
75910
75905
75896
75903
75918
75920
75878
75821
75782
75768
75744
75774
75784
75781
75776
75799
75815
75849
75840
75848
75839
75830
75836
75844
75843
75857
75866
75878
75866
75886
75888
75908
75918
75915
75939
75910
75884
75844
75841
75828
75855
75868
75881
75889
75928
75917
75922
75942
75947
75949
75937
75942
75952
75958
75948
75977
75996
76003
75988
76003
76028
76025
76026
75999
75952
75913
75899
75908
75906
75911
75916
75933
75935
75957
75951
75974
75981
75996
75986
75973
75981
75980
75992
76017
76029
76029
76033
76038
76068
76066
76050
76074
76087
76060
76031
75979
75954
75955
75952
75954
75977
75978
75977
75991
75993
76015
76028
76046
76026
76028
76020
76006
76003
76024
76018
76046
76039
76032
76041
76052
76040
76052
76049
76052
76057
76072
76053
76001
75964
75924
75912
75931
75940
75924
75946
75952
75961
75969
75983
75965
75987
75977
75978
75965
75978
75976
75996
75967
75992
75996
76008
75987
76012
76042
76033
76040
76028
76068
76030
75996
75942
75935
75938
75953
75960
75969
75968
75994
76008
76020
76046
76055
76056
76054
76069
76073
76095
76101
76117
76128
76142
76136
76167
76167
76168
76198
76197
76176
76150
76114
76077
76088
76101
76105
76116
76131
76119
76134
76152
76167
76173
76176
76186
76174
76187
76176
76195
76202
76211
76234
76224
76245
76259
76264
76283
76281
76262
76248
76189
76167
76182
76180
76179
76193
76201
76206
76206
76226
76234
76242
76243
76221
76241
76247
76246
76235
76253
76249
76256
76250
76259
76249
76276
76267
76256
76256
76261
76223
76169
76147
76129
76144
76151
76113
76134
76114
76144
76141
76152
76168
76161
76163
76160
76165
76169
76167
76153
76166
76162
76192
76198
76198
76205
76204
76230
76229
76223
76193
76147
76108
76087
76094
76092
76087
76116
76117
76119
76126
76138
76146
76167
76161
76174
76142
76170
76189
76205
76187
76201
76190
76205
76213
76205
76243
76238
76258
76223
76168
76154
76147
76148
76174
76189
76178
76198
76202
76232
76253
76250
76255
76238
76270
76250
76269
76263
76262
76277
76281
76290
76309
76295
76304
76312
76288
76248
76215
76180
76195
76192
76193
76208
76213
76223
76227
76237
76248
76257
76278
76260
76262
76277
76288
76298
76281
76271
76275
76277
76302
76291
76317
76301
76314
76276
76236
76171
76165
76149
76138
76122
76176
76146
76158
76162
76188
76202
76191
76216
76194
76214
76193
76219
76204
76217
76213
76209
76207
76245
76228
76237
76239
76229
76193
76135
76115
76109
76119
76130
76124
76143
76141
76166
76153
76159
76164
76163
76165
76176
76166
76178
76187
76187
76190
76193
76211
76199
76232
76230
76238
76238
76212
76164
76119
76126
76107
76129
76137
76149
76150
76156
76148
76157
76174
76181
76194
76188
76176
76187
76196
76185
76200
76213
76210
76217
76235
76211
76250
76235
76179
76142
76101
76107
76111
76100
76115
76107
76148
76139
76135
76152
76163
76168
76174
76161
76166
76173
76172
76177
76194
76178
76176
76200
76208
76212
76201
76213
76205
76184
76153
76089
76065
76072
76051
76065
76066
76076
76093
76095
76113
76100
76115
76103
76115
76084
76116
76097
76116
76119
76114
76115
76104
76103
76103
76104
76118
76122
76115
76127
76123
76097
76024
76001
76015
75995
76012
76006
76021
76000
76025
76030
76049
76035
76053
76052
76047
76049
76059
76074
76066
76084
76075
76098
76107
76109
76129
76149
76147
76152
76147
76119
76064
76063
76050
76050
76066
76057
76071
76085
76113
76100
76124
76129
76132
76129
76130
76119
76124
76154
76155
76142
76163
76152
76161
76173
76168
76195
76193
76191
76185
76120
76089
76076
76084
76074
76103
76097
76111
76109
76107
76133
76144
76153
76153
76165
76171
76164
76165
76168
76164
76184
76196
76200
76219
76195
76216
76238
76227
76241
76221
76255
76194
76183
76128
76113
76101
76136
76107
76116
76119
76111
76117
76124
76142
76150
76121
76131
76137
76116
76136
76128
76122
76165
76141
76152
76162
76165
76175
76168
76170
76187
76202
76188
76205
76203
76190
76136
76114
76103
76103
76101
76123
76110
76122
76124
76115
76141
76174
76170
76191
76162
76173
76178
76157
76183
76179
76185
76213
76190
76194
76181
76189
76215
76227
76230
76256
76234
76191
76163
76163
76152
76162
76162
76161
76170
76170
76195
76216
76217
76228
76244
76212
76224
76237
76256
76233
76247
76249
76262
76278
76274
76297
76283
76302
76311
76310
76290
76238
76216
76187
76229
76197
76217
76234
76219
76236
76235
76242
76264
76260
76262
76245
76249
76251
76266
76274
76293
76289
76292
76313
76313
76309
76308
76316
76317
76335
76333
76348
76323
76286
76251
76240
76223
76236
76233
76238
76251
76231
76255
76277
76266
76291
76281
76283
76272
76284
76300
76287
76309
76317
76296
76306
76320
76328
76345
76347
76365
76362
76359
76364
76372
76383
76355
76297
76274
76232
76221
76244
76223
76233
76260
76260
76271
76265
76270
76284
76295
76283
76272
76280
76276
76280
76277
76295
76280
76311
76316
76315
76341
76318
76326
76345
76334
76340
76359
76332
76288
76265
76251
76253
76254
76272
76278
76285
76282
76297
76310
76320
76336
76339
76330
76333
76318
76349
76344
76350
76371
76379
76371
76395
76397
76418
76409
76404
76414
76387
76371
76334
