68870
68737
68699
68654
68638
68672
68694
68745
68778
68803
68826
68836
68854
68846
68866
68872
68884
68914
68919
68899
68812
68757
68710
68711
68740
68773
68822
68851
68882
68908
68897
68914
68898
68892
68873
68853
68842
68874
68884
68878
68830
68824
68778
68811
68803
68820
68882
68875
68908
68881
68864
68866
68848
68839
68855
68873
68883
68883
68829
68749
68678
68686
68691
55282
55225
55195
55175
55128
55101
55074
55089
55075
55088
55059
55041
55036
55028
55064
55123
55191
55229
55252
55246
55192
55137
55054
55047
55024
55017
54996
54997
54996
54987
54971
54944
68887
68871
68826
68739
68674
68660
68659
68652
68693
68713
68747
68762
68787
68768
68772
68765
68750
55165
55121
55100
55118
55122
55185
55237
55267
55262
55273
55261
55243
55228
55199
55194
55184
55190
55176
55196
55191
55189
55199
55176
55187
55188
55234
55296
55335
55346
55331
55342
55344
68582
68638
68648
68644
68639
68639
68626
68631
68627
68626
68637
68640
68635
68575
68497
68455
68401
68427
55512
55470
55445
55416
55417
55401
55394
55386
55397
55386
55376
55403
55405
55406
55425
55485
55543
55578
55560
55553
55541
55526
55485
55464
55453
55478
55484
55449
55409
55309
55168
55103
68602
68637
68601
68534
68492
68456
68466
68448
68485
68517
68541
68599
68627
68648
68647
68672
68658
68681
68690
68700
68716
68735
68691
68599
68555
68534
68534
68571
68610
68635
68655
68679
68706
68699
68713
68707
68695
68697
68705
68721
68725
68719
68658
68585
68523
68519
68506
68540
68584
68630
68645
68677
68677
68677
68687
68678
68707
68725
68750
68751
68786
68802
68721
68680
68645
68657
68677
68706
68773
68808
68838
68886
68897
68885
68889
68900
68910
68918
68952
68985
68974
68944
68921
68912
68840
68780
68735
68703
68705
68680
68672
68652
68647
68661
68670
68712
68743
68788
68837
68908
68900
68862
68850
68884
68940
69010
69074
69090
69135
69135
69158
69154
69156
69152
69129
69130
69128
69142
69130
69115
69018
68938
68874
68881
68922
68921
68968
69021
69072
69120
69124
69122
69135
69157
69149
69178
69191
69222
69198
69123
69033
68999
68998
68987
69025
69074
69134
69219
69267
69327
69360
69355
69392
69390
69404
69419
69471
69465
69383
69305
69244
69204
69222
69248
69269
69321
69353
69365
69400
69423
69475
69475
69492
69474
69482
69486
69495
69451
69327
69215
69153
69148
69158
69167
69205
69246
69280
69295
69332
69341
69319
69338
69360
69372
69366
69386
69350
69273
69163
69089
69058
69080
69087
69106
69167
69225
69263
69283
69288
69298
69281
69283
69292
69310
69327
69330
69272
69178
69085
69032
69008
69006
69013
69074
69096
69155
69168
69158
69155
69153
69146
69130
69122
69153
69150
69110
68995
68918
68840
68807
68805
68847
68895
68938
68977
68989
69008
69022
69020
69015
69014
69047
69042
69059
69029
68943
68818
68764
68745
68739
68772
68791
68836
68883
68915
68945
68983
68973
69000
69021
69041
69069
69089
69131
69104
69009
68937
68881
68852
68849
68842
68854
68864
68831
68821
68818
68814
68814
68853
68839
68846
68855
68825
68757
68630
68548
68454
68435
68433
68415
68449
68476
68470
68434
68443
68433
68444
68446
68442
68428
68423
68410
68366
68243
68145
68060
68045
68034
68019
68062
68080
68089
68124
68118
68124
68127
68132
68127
68144
68166
68178
68218
68184
68065
68004
67966
67958
67994
67998
67995
68011
68021
68034
68051
68032
68005
67975
67960
68015
68036
68065
68083
68057
67929
67854
67815
67808
67809
67828
67881
67914
67966
67985
67982
67972
67931
67919
67958
68010
68071
68142
68196
68156
68036
67934
67900
67913
67922
67948
68001
68061
68121
68160
68220
68249
68277
68312
68324
68334
68357
68402
68424
68425
68316
68204
68143
68145
68121
68136
68132
68180
68192
68241
68253
68236
68241
68235
68249
68283
68289
68317
68340
68343
68258
68139
68087
68057
68030
68041
68078
68124
68195
68228
68232
68271
68252
68213
68192
68193
68325
68110
67475
67145
67145
66962
66917
66946
67061
67059
66991
67194
67678
68590
69046
69042
41111
69172
69450
69610
69628
69801
69719
69591
69471
69290
69280
69335
69386
69518
69569
69612
69846
70111
70408
70623
70724
70710
69967
70504
70568
70597
70652
70759
70858
70933
70908
70889
70921
70952
71035
71156
71311
71493
71539
71592
71630
71573
71496
71451
71426
71435
71446
71505
71522
71552
71600
71562
71522
71439
71317
71177
71068
70798
70322
69816
69635
69714
69705
69648
69673
69682
69685
69645
69623
69565
69551
69505
69480
69467
69461
69451
69349
69238
69207
69236
69295
69343
69432
69535
69624
69726
69830
69969
70062
70113
70181
70237
70270
70317
70383
70459
70495
70504
70452
70407
70387
70381
70341
70249
70101
69947
69870
69526
69319
69036
68531
68526
68918
70257
70646
70792
70972
71370
71717
71815
71757
71628
71688
71784
71910
72033
72158
72242
72356
72509
72672
72698
72667
72631
72629
72681
72715
72769
72810
72804
72771
72693
72604
72564
72548
72584
72591
72488
72144
71178
71612
70346
71882
72858
73161
73353
73117
72635
72647
72589
72323
72164
72102
72019
72078
72571
73881
75389
76028
76416
76519
76413
76362
76180
75768
75537
75318
75198
75416
75577
75419
75304
75186
75158
75265
74487
73225
74261
73463
72817
72901
73570
74554
74018
74431
74541
74831
75020
74931
75116
75202
75135
75161
75155
75119
75118
75068
74918
74803
74753
74686
74670
74668
74652
74663
74703
74725
74769
74784
74765
74771
74757
74769
74795
74777
74788
74823
74858
74918
74900
74874
74769
74724
74720
74693
74712
74724
74756
74805
74830
74844
74842
74864
74861
74843
74888
74937
74963
74984
74984
75029
75025
74978
74899
74803
74732
74714
74699
74728
74757
74757
74798
74820
74848
74872
74846
74835
74838
74804
74794
74776
74778
74775
74745
74686
74642
74620
74543
74216
73696
73093
72278
71522
70789
70493
70348
70338
70379
70385
70187
70140
69894
69731
69195
68594
68646
69334
69685
70243
70782
71050
71217
71339
71412
71279
71392
71603
71768
71848
71903
71960
72012
72040
72084
72227
72293
72229
72172
72301
72353
72296
72314
72643
72605
72486
72528
72502
72477
72474
72483
72681
72653
72672
73054
73232
73048
72868
72804
72939
72982
72870
72648
72511
72132
71887
71717
71325
71094
70657
70240
69802
69181
69091
69526
70101
70451
71104
72177
73407
74234
74441
74499
74592
74524
74318
74204
74330
74247
74123
74041
73912
73966
74100
74218
74425
74615
74780
74843
74841
74785
74780
74861
74925
74967
75020
74995
75049
75072
75182
75153
75200
75186
75208
75227
75227
75186
75182
75242
75404
75542
75689
75822
75873
75953
75928
75750
75596
75425
75323
75197
75113
75084
75038
75015
75002
74983
74986
74973
74969
74930
74916
74871
74865
74906
74944
74918
74908
74860
74872
74864
74847
74748
74608
74494
74350
74189
73933
73522
72929
72462
72159
71911
71752
71689
71592
71562
71510
71548
71619
71599
71667
71755
71849
71949
72045
72014
71893
71836
71822
71830
71813
71812
71857
71898
71974
72062
72156
72275
72350
72444
72513
72557
72609
72585
72601
72616
72750
72815
72819
72752
72688
72628
72658
72696
72766
72859
72900
73005
73076
73158
73211
73245
73284
73307
73322
73352
73386
73435
73447
73489
73515
73600
73664
73695
73626
73530
73457
73466
73460
73519
73617
73703
73791
73843
73921
73968
74010
74019
73966
73911
73908
73971
74002
74090
74183
74231
74232
74231
74138
74158
74112
74038
73858
73652
73563
73514
73460
73422
73445
73445
73468
73496
73572
73615
73630
73649
73721
73742
73804
73823
73873
73923
73951
73967
73989
73988
73971
73929
73893
73834
73709
73648
73552
73456
73428
73372
73333
73313
73302
73269
73252
73196
73074
72893
72693
72524
72431
72378
72365
72338
72336
72339
72326
72349
72376
72376
72418
72436
72411
72293
72206
72108
72098
72080
72075
72047
72052
72086
72115
72139
72148
72182
72174
72182
72213
72215
72233
72253
72287
72324
72392
72422
72434
72493
72545
72523
72426
72323
72274
72262
72262
72301
72331
72392
72461
72515
72551
72585
72614
72622
72631
72659
72678
72683
72685
72719
72755
72789
72834
72855
72888
72894
72951
72972
73038
73085
73070
72980
72888
72796
72757
72746
72769
72793
72827
72879
72897
72962
73002
73035
73055
73082
73121
73144
73187
73238
73280
73333
73372
73406
73454
73503
73569
73605
73686
73719
73744
73799
73816
73887
73941
73955
73927
73852
73762
73723
73727
73731
73738
73757
73776
73809
73850
73884
73907
73920
73906
73905
73916
73930
73924
73917
73917
73914
73928
73934
73938
73927
73931
73943
73932
73976
73953
73968
73895
73760
73649
73565
73510
73443
73410
73402
73401
73412
73420
73410
73395
73339
73309
73314
73290
73292
73272
73251
73221
73231
73215
73220
73230
73223
73234
73261
73249
73210
73072
72960
72857
72812
72784
72780
72799
72776
72786
72801
72816
72795
72811
72768
72769
72759
72771
72803
72834
72853
72886
72890
72892
72921
72928
72963
72999
73001
72941
72866
72742
72683
72640
72625
72626
72643
72662
72704
72736
72773
72815
72812
72834
72846
72850
72858
72874
72889
72897
72934
72954
72993
73018
73026
73061
73099
73154
73158
73136
73043
72944
72876
72865
72874
72873
72915
72948
72990
73062
73111
73143
73177
73201
73224
73241
73243
73249
73295
73306
73327
73368
73414
73485
73705
73880
74047
74180
74343
74488
74596
74673
74705
74785
74956
75108
75258
75414
75604
75788
75820
75823
75718
75664
75618
75548
75472
75429
75399
75415
75419
75407
75432
75471
75499
75502
75452
75407
75344
75312
75287
75284
75259
75204
75114
75004
74973
74891
74857
74824
74786
74805
74798
74778
74767
74766
74780
74737
74740
74712
74718
74742
74749
74792
74796
74800
74816
74843
74837
74874
74868
74835
74834
74788
74667
74494
74323
74193
74109
74067
74041
74031
74060
74074
74118
74181
74245
74295
74358
74430
74457
74507
74563
74609
74619
74644
74682
74696
74704
74747
74755
74762
74768
74831
74838
74850
74784
74739
74728
74688
74722
74706
74718
74709
74662
74666
74633
74606
74470
74280
74093
73971
73887
73810
73765
73712
73686
73676
73655
73678
73701
73722
73762
73792
73880
73922
74000
73955
73871
73726
73650
73552
73514
73434
73375
73319
73291
73265
73247
73213
73189
73177
73288
73361
73390
73361
73228
72945
72677
72484
72333
72206
72058
71951
71794
71719
71641
71579
71527
71404
71232
71142
71063
71022
70995
70962
70980
70947
70940
70936
70944
70931
70917
70899
70879
70863
70837
70812
70796
70782
70754
70705
70693
70716
70705
70714
70712
70742
70722
70672
70550
70439
70366
70324
70290
70271
70270
70261
70259
70255
70253
70235
70226
70209
70210
70215
70213
70222
70235
70253
70245
70267
70268
70269
70274
70262
70270
70291
70264
70252
70160
70070
69984
69944
69898
69882
69892
69878
69872
69860
69888
69897
69928
70112
70002
69909
69889
69840
69707
69705
69729
69771
69766
69788
69794
69807
69810
69826
69815
69811
69819
69776
69762
69698
69550
69453
69363
69333
69292
69297
69300
69294
69293
69330
69338
69340
69327
69329
69323
69346
69339
69353
69368
69363
69368
69371
69399
69390
69401
69395
69407
69420
69422
69444
69446
69420
69349
69279
69196
69211
69222
69227
69231
69266
69259
69263
69280
69292
69304
69315
69312
69326
69347
69370
69383
69391
69408
69429
69428
69436
69440
69470
69480
69496
69517
69528
69517
69418
69339
69291
69262
69250
69258
69266
69289
69300
69334
69361
69371
69398
69393
69392
69391
69420
69414
69425
69438
69438
69449
69463
69479
69503
69494
69510
69517
69518
69544
69513
69398
69317
69265
69232
69212
69219
69225
69244
69266
69281
69315
69327
69359
69362
69365
69364
69378
69386
69410
69417
69439
69446
69458
69483
69499
69516
69536
69529
69562
69564
69571
69595
69528
69424
69346
69304
69277
69262
69295
69305
69313
69331
69381
69404
69403
69429
69423
69426
69434
69454
69464
69470
69486
69490
69502
69527
69516
69558
69558
69563
69560
69577
69592
69600
69597
69543
69462
69375
69328
69342
69291
69283
69297
69327
69355
69402
69440
69474
69482
69498
69529
69589
69678
69754
69802
69871
69955
70039
70128
70233
70288
70409
70503
70631
70751
70924
71045
71076
70874
70639
70456
70388
70343
70285
70248
70139
70121
70092
70115
70200
70298
70425
70499
70511
70457
70395
70421
70574
70830
71223
71559
71921
72341
72613
72762
72873
72944
72951
72912
72807
72731
72729
72731
72790
72841
72893
72917
73026
73151
72944
72209
71235
71212
70761
70962
71308
71234
71137
71042
70918
70789
70721
70658
70612
70576
70529
70438
70347
70265
70160
69995
69883
69819
69753
69718
69678
69670
69662
69684
69724
69741
69733
69716
69730
69730
69721
69722
69712
69733
69740
69719
69725
69719
69714
69714
69728
69725
69667
69590
69504
69449
69413
69409
69422
69443
69462
69469
69522
69525
69560
69549
69576
69574
69566
69576
69566
69567
69578
69579
69577
69564
69577
69570
69571
69578
69583
69540
69480
69384
69311
69269
69233
69237
69248
69274
69311
69317
69360
69348
69343
69377
69585
69611
69657
69703
69764
69857
69935
69950
69945
69942
69919
69864
69854
69883
69884
69843
69787
69676
69645
69651
69622
69626
69643
69687
69702
69737
69760
69797
69786
69775
69763
69725
69735
69709
69714
69696
69695
69677
69665
69658
69672
69672
69660
69655
69662
69652
69598
69531
69430
69409
69361
69359
69379
69363
69376
69399
69407
69424
69420
69435
69444
69418
69457
69466
69468
69461
69455
69462
69444
69479
69482
69490
69499
69514
69521
69546
69515
69534
69504
69423
69336
69296
69268
69255
69260
69264
69269
69290
69301
69328
69331
69335
69331
69315
69348
69325
69328
69350
69375
69390
69401
69415
69433
69465
69502
69501
69574
69536
69423
69450
69590
69702
69786
69890
69901
69869
69862
69887
69905
69941
69988
70048
70108
70144
70173
70193
70235
70253
70278
70281
70290
70292
70295
70293
70289
70267
70281
70280
70275
70272
70252
70229
70220
70084
70046
70054
70034
70051
70044
70057
70024
69963
69894
69803
69765
69726
69717
69703
69720
69733
69731
69757
69765
69730
69582
69489
68898
68992
69063
69109
69161
69215
69216
69205
69206
69205
69243
69293
69349
69390
69426
69478
69555
69606
69631
69608
69566
69534
69526
69525
69552
69576
69600
69629
69645
69686
69709
69742
69776
69815
69836
69842
69889
69906
69915
69956
69966
70000
70024
70048
70090
70086
70122
70152
70165
70191
70157
70087
70025
69985
69985
69990
70019
70049
70067
70113
70175
70259
70287
70330
70349
70355
70384
70389
70423
70444
70491
70531
70540
70587
70621
70648
70655
70666
70696
70735
70782
70786
70791
70733
70653
70619
70612
70592
70627
70617
70662
70670
70716
70738
70762
70786
70807
70812
70814
70814
70820
70804
70825
70831
70839
70808
70794
70778
70761
70741
70558
70400
70482
70590
70657
70683
70707
70714
70682
70636
70616
70632
70606
70640
70640
70658
70678
70674
70702
70703
70705
70708
70739
70753
70741
70752
70756
70761
70723
70679
70616
70611
70614
70613
70626
70669
70676
70719
70729
70750
70772
70766
70786
70779
70802
70821
70832
70837
70857
70869
70877
70875
70903
70900
70924
70916
70965
70957
70955
70974
70978
71018
71031
71064
71061
71095
71097
71110
71146
71156
71158
71200
71198
71224
71251
71252
71272
71277
71289
71251
71166
71088
71023
71009
70997
70986
71173
71236
71288
71321
71370
71398
71395
71399
71384
71383
71373
71378
70459
70551
70652
70671
70720
70770
70812
70844
70884
70921
70948
70989
70995
71033
71068
71088
71105
71095
71100
71079
70995
70932
70896
70859
70868
70867
70880
70899
70906
70931
70957
70955
70979
70977
70986
70982
70999
70988
70986
70969
70982
71020
71017
71045
71038
71058
71052
71032
71032
71065
71059
71042
70999
70943
70879
70828
70827
70791
70787
70785
70813
70815
70847
70857
70870
70886
70907
70962
70977
71005
71013
71015
71040
71067
71084
71124
71161
71154
71183
71196
71181
71208
71212
71170
71076
70999
70914
70858
70853
70822
70816
70829
70842
70855
70871
70899
70917
70920
70927
70930
70950
70944
70950
70933
70965
70977
70994
71008
71037
71035
71057
71062
71079
71109
71124
71107
71048
70962
70908
70886
70861
70862
70877
35734
70919
70966
70994
71007
71040
71046
71051
71059
71055
71074
71089
71110
71145
71138
71181
71199
71216
71228
71233
71290
71300
71306
71319
71322
71306
71281
71170
71139
71068
71069
71046
71032
71068
71055
71083
71093
71095
71119
71100
71073
71075
71073
71072
71088
71100
71122
71132
71160
71203
71211
71245
71230
71279
71287
71297
71321
71313
71266
71190
71125
71078
71062
71063
71069
71084
71110
71170
71194
71230
71258
71288
71297
71311
71327
71349
71344
71370
71376
71384
71403
71439
71444
71469
71476
71502
71502
71511
71534
71533
71471
71374
71308
71273
71258
71271
71307
71299
71354
71386
71415
71459
71471
71481
71514
71502
71497
71534
71543
71549
71595
71605
71614
71641
71667
71693
71708
71725
71735
71777
71799
71793
71800
71767
71702
71624
71581
71540
71520
71522
71556
71588
71606
71631
71645
71658
71696
71704
71679
71663
71633
71633
71667
71641
71641
71648
71647
71633
71625
71621
71640
71643
71641
71646
71675
71660
71660
71576
71498
71414
71385
71365
71357
71362
71381
71423
71430
71457
71495
71532
71553
71558
71551
71566
71596
71609
71607
71647
71649
71666
71701
71714
71718
71763
71771
71764
71782
71794
71826
71812
71791
71714
71627
71600
71580
71553
71583
71594
71619
71636
71648
71651
71690
71697
71696
71738
71722
71729
71738
71743
71756
71758
71773
71784
71792
71821
71819
71825
71863
71850
71837
71855
71857
71840
71813
71752
71678
71604
71565
71522
71550
71543
71560
71584
71593
71606
71594
71618
71600
71609
71593
71602
71603
71618
71655
71652
71676
71688
71738
71720
71721
71747
71761
71767
71752
71784
71790
71773
71704
71612
71556
71532
71516
71506
71512
71540
71566
71573
71578
71600
71616
71631
71644
71630
71634
71643
71641
71668
71674
71717
71720
71734
71749
71778
71805
71813
71826
71819
71840
71844
71851
71827
71777
71679
71636
71587
71593
71574
71592
71612
71618
71658
71654
71656
71655
71668
71659
71647
71632
71622
71582
71590
71564
71559
71542
71537
71542
71559
71567
71555
71570
71623
71629
71671
71661
71633
71552
71463
71424
71407
71386
71411
71410
71428
71455
71479
71485
71493
71501
71524
71508
71509
71524
71517
71505
71528
71535
71558
71551
71577
71593
71582
71597
71615
71630
71644
71644
71625
71525
71471
71403
71400
71377
71383
71386
71392
71410
71424
71454
71482
71485
71490
71508
71509
71507
71512
71537
71528
71537
71541
71572
71558
71572
71588
71610
71599
71615
71628
71627
71595
71527
71426
71355
71302
71303
71292
71306
71331
71355
71361
71404
71395
71415
71430
71424
71380
71373
71351
71358
71337
71341
71345
71347
71357
71336
71313
71308
71249
71252
71267
71288
71292
71318
71297
71223
71119
71050
71000
70968
70953
70947
70953
70951
70932
70912
70914
70898
70907
70895
70861
70848
70845
70836
70827
70804
70817
70825
70808
70789
70813
70818
70810
70802
70814
70821
70825
70832
70838
70758
70690
70577
70551
70546
70522
70531
70550
70553
70585
70591
70597
70612
70652
70638
70629
70640
70644
70647
70655
70640
70650
70656
70678
70672
70672
70670
70699
70707
70713
70720
70725
70723
70676
70560
70512
70462
70445
70435
70425
70442
70469
70491
70512
70534
70552
70651
70720
70772
70804
70867
70904
70916
70984
71021
71032
71055
71081
71097
71089
71095
71099
71111
71119
71192
71212
71213
71260
71223
71150
71095
71092
71081
71099
71114
71123
71168
71198
71200
71247
71282
71295
71312
71305
71306
71329
71321
71354
71365
71342
71387
71386
71401
71398
71404
71431
71423
71436
71437
71439
71458
71464
71427
71358
71288
71238
71221
71222
71227
71225
71264
71274
71302
71317
71339
71346
71353
71350
71348
71357
71362
71374
71363
71363
71378
71384
71382
71386
71410
71393
71408
71423
71449
71450
71449
71409
71337
71243
71193
71203
71176
71162
71189
71174
71215
71238
71224
71259
71283
71285
71302
71282
71286
71324
71343
71355
71351
71350
71385
71382
71382
71403
71407
71434
71445
71462
71468
71488
71491
71441
71367
71299
71264
71241
71236
71256
71255
71300
71334
71322
71356
71401
71395
71397
71400
71408
71407
71419
71422
71423
71446
71448
71448
71466
71462
71472
71476
71488
71491
71497
71510
71532
71538
71485
71427
71350
71323
71317
71307
71332
71337
71362
71383
71398
71434
71440
71458
71449
71459
71452
71454
71480
71476
71391
71417
71420
71427
71441
71445
71453
71457
71463
71471
71481
71494
71489
71438
71344
71294
71241
71242
71227
71257
71265
71284
71293
71319
71332
71356
71367
71364
71376
71373
71372
71375
71395
71394
71393
71383
71404
71407
71406
71447
71436
71451
71482
71494
71517
71524
71485
71411
71345
71279
71258
71260
71245
71247
71244
71259
71277
71291
71342
71338
71336
71344
71323
71321
71333
71335
71327
71317
71363
71371
71360
71376
71389
71401
71408
71408
71411
71429
71437
71454
71459
71404
71328
71263
71206
71205
71193
71224
71236
71256
71290
71309
71343
71369
71375
71383
71387
71380
71381
71392
71424
71433
71440
71464
71477
71495
71503
71532
71550
71560
71576
71588
71602
71629
71653
71623
71541
71485
71442
71420
71409
71439
71462
71480
71509
71531
71560
71579
71585
71590
71606
71591
71614
71634
71642
71644
71680
71671
71704
71720
71731
71749
71772
71767
71794
71813
71829
71799
71775
71665
71637
71596
71607
71590
71605
71638
71658
71678
71698
71724
71757
71764
71761
71765
71771
71777
71750
71776
71776
71773
71787
71794
71815
71828
71836
71851
71873
71885
71896
71932
71951
71956
71915
71842
71737
71656
71636
71612
71612
71598
71605
71617
71625
71652
71652
71663
71665
71670
71675
71687
71731
71758
71778
71797
71842
71888
71902
71902
71927
71941
71921
71938
71964
71972
71993
72008
71870
71573
71448
71165
71104
70900
70673
70522
70414
70265
70280
70301
70423
70460
70518
70543
70570
70601
70600
70673
70713
70798
70848
70929
71009
71109
71230
71334
71406
71515
71576
71632
71682
71685
71617
71560
71517
71501
71520
71510
71517
71621
71689
71752
71893
72061
72325
72357
73264
73300
73385
73399
73455
73526
73607
73722
73363
73255
73224
73182
73160
73175
73159
73152
73084
72982
72881
72792
72724
72707
72673
72648
72633
72629
72608
72600
72596
72583
72576
72545
72540
72523
72514
72507
72499
72520
72512
72520
72543
72537
72571
72607
72634
72611
72549
72457
72380
72342
72355
72379
72402
72417
72463
72543
72590
72658
72649
72669
72710
72729
72737
72747
72748
72737
72745
72785
72826
72837
72861
72856
72874
72873
72893
72866
72833
72718
72627
72569
72557
72539
72542
72526
72534
72518
72540
72547
72560
72527
72464
72450
72433
72439
72423
72429
72434
72435
72441
72430
72428
72429
72421
72414
72434
72440
72424
72365
72269
72149
72093
72043
72043
72010
71998
71996
71977
71968
71968
71955
71944
71931
71882
71890
71898
71890
71880
71901
71901
71931
71912
71901
71923
71944
71968
71974
71984
71998
72031
71981
71890
71821
71806
71776
71767
71833
71799
71835
71878
71912
71931
71936
71955
71994
72015
71991
71968
71902
71855
71970
72074
72214
72262
72272
72272
72299
72301
72336
72373
72371
72381
72416
72423
72428
72365
72291
72227
72213
72210
72218
72240
72284
72318
72355
72398
72438
72509
72550
72591
72629
72654
72705
72747
72785
72803
72820
72843
72890
72935
72973
29190
72984
73006
73018
73034
73007
73005
72960
72871
72764
72646
72579
72496
72446
72419
72407
72390
72405
72571
72726
72882
72979
73043
73067
73091
73089
73067
73074
73059
73048
73059
73058
73088
73083
73118
73167
73190
73226
73245
73244
73159
73074
72970
72929
72897
72905
72913
72940
72970
73034
73152
73216
73335
73481
73588
73635
73660
73677
73647
73643
73643
73622
73618
73592
73561
73554
73544
73553
73549
73593
73681
73788
73856
73823
73747
73667
73638
73608
73611
73630
73609
73627
73627
73626
73628
73654
73634
73664
73663
73672
73653
73659
73663
73642
73676
73693
73727
73735
73735
73760
73761
73773
73769
73788
73803
73792
73760
73675
73567
73495
73440
73393
73394
73381
73388
73405
73451
73458
73485
73477
73488
73497
73471
73490
73478
73487
73467
73466
73506
73502
73499
73513
73504
73515
73512
73517
73547
73539
73522
73431
73335
73245
73184
73164
73131
73144
73173
73176
73227
73234
73259
73266
73287
73286
73316
73306
73316
73323
73350
73347
73389
73381
73415
73439
73449
73454
73488
73487
73490
73513
73509
73439
73353
73254
73210
73179
73156
73169
73200
73207
73242
73266
73303
73329
73357
73356
73368
73364
73362
73356
73357
73392
73397
73414
73425
73424
73463
73476
73480
73478
73483
73466
73520
73525
73491
73426
73346
73290
73254
73232
73276
73276
73327
73345
73408
73406
73467
73495
73503
73508
73511
73514
73530
73527
73557
73564
73580
73577
73578
73589
73621
73625
73616
73637
73643
73643
73637
73618
73523
73418
73347
73301
73302
73288
73302
73327
73345
73359
73394
73420
73436
73435
73432
73457
73443
73429
73443
73466
73484
73469
73502
73508
73523
73534
73541
73573
73585
73597
73603
73528
73441
73329
73274
73246
73226
73218
73245
73271
73312
73325
73362
73392
73417
73435
73462
73457
73460
73462
73472
73460
73492
73531
73524
73537
73540
73584
73576
73607
73634
73672
73674
73680
73708
73629
73562
73447
73406
73377
73359
73386
73395
73409
73428
73466
73473
73516
73535
73548
73535
73551
73537
73473
73551
73595
73572
73591
73583
73629
73665
73705
73759
73778
73800
73800
73796
73829
73828
73783
73716
73599
73505
73458
73441
73405
73401
73430
73441
73473
73494
73507
73506
73519
73501
73508
73500
73477
73478
73479
73497
73500
73496
73498
73522
73521
73536
73531
73538
73535
73552
73555
73512
73404
73304
73238
73168
73135
73156
73167
73198
73228
73312
73417
73597
73953
74278
73706
73096
73046
73042
73106
73211
73271
73383
73506
73605
73720
73794
73621
73333
73078
72767
72485
72202
71830
71575
71324
71046
70831
70628
70447
70334
70193
70136
69856
69756
69554
69223
69173
69145
69238
69433
69960
70616
71202
71662
71838
71929
71989
71983
71968
71916
71674
71675
71635
71672
71707
71772
71820
71852
71897
71935
72071
72973
73256
73460
73187
72979
72887
72827
72778
72750
72728
72698
72675
72613
72568
72629
72664
72625
72634
72667
72704
72764
72824
72839
72908
72965
72999
73018
72961
72895
72862
72857
72832
72848
72863
72900
72916
72952
72977
73015
73047
73077
73099
73099
73094
73099
73114
73126
73143
73165
73192
73186
73207
73207
73238
73260
73257
73180
73077
73049
73006
73000
73002
73008
73025
73026
73060
73105
73136
73138
73162
73199
73163
73183
73164
73198
73181
73201
73193
73224
73221
73226
73228
73244
73260
73242
73171
73088
72997
72959
72970
72955
72971
72976
72974
73006
73017
73062
73067
73083
73094
73096
73113
73096
73109
73108
73123
73142
73152
73166
73172
73208
73211
73225
73244
73232
73262
73231
73168
73071
72993
72949
72923
72923
72944
72961
72970
73001
73016
73052
73079
73078
73070
73075
73063
73060
73091
73091
73076
73088
73115
73104
73123
73148
73135
73128
73156
73143
73163
73172
73173
73164
73101
73026
72920
72904
72870
72873
72897
72893
72909
72939
72974
72984
73024
73029
73046
73051
73050
73036
73052
73040
73072
73083
73081
73097
73102
73122
73146
73139
73164
73164
73198
73217
73203
73112
73009
72973
72939
72921
72936
72932
72959
72967
73008
73047
73074
73090
73112
73132
73147
73125
73139
73136
73157
73153
73180
73194
73200
73204
73228
73218
73253
73261
73276
73278
73212
73232
73190
73150
73051
72978
72966
72930
72912
72941
72950
72964
72987
73007
73037
73058
73061
73088
73070
73092
73086
73098
73104
73147
73135
73144
73167
73179
73196
73194
73220
73225
73215
73227
73218
73246
73247
73218
73133
73051
73003
72996
72976
72972
72983
73012
73023
73053
73078
73098
73099
73109
73104
73099
73100
73096
73107
73138
73132
73140
73136
73163
73162
73190
73178
73194
73187
73211
73216
73164
73089
73029
72976
72955
72948
72939
72958
72978
72977
73001
73026
73063
73078
73113
73096
73098
73109
73115
73102
73121
73136
73150
73162
73184
73175
73198
73228
73233
73248
73245
73267
73238
73185
73084
73030
73008
72987
72981
72969
72989
73042
73057
73073
73108
73125
73156
73166
73161
73185
73173
73188
73197
73214
73202
73243
73240
73250
73266
73273
73288
73292
73295
73337
73332
73317
73266
73207
73108
73068
73050
73055
73062
73088
73086
73117
73151
73178
73206
73222
73234
73223
73234
73240
73223
73230
73269
73263
73280
73293
73294
73312
73310
73319
73333
73348
73365
73365
73332
73255
73191
73135
73088
73075
73073
73106
73102
73125
73136
73166
73210
73243
73236
73259
73249
73240
73252
73251
73261
73264
73275
73280
73295
73291
73316
73310
73314
73336
73355
73312
73270
73158
73094
73045
73038
73021
73035
73048
73058
73092
73098
73129
73163
73199
73182
73221
73200
73217
73222
73240
73257
73275
73306
73304
73299
73291
73309
73305
73330
73314
73355
73362
73330
73267
73189
73122
73089
73083
73082
73071
73085
73098
73126
73168
73182
73229
73223
73222
73218
73230
73218
73232
73233
73246
73255
73244
73269
73274
73282
73248
73273
73264
73264
73272
73307
73303
73282
73215
73140
73117
73107
73116
73163
73214
73251
73314
73374
73419
73482
73524
73545
73577
73586
73634
73636
73659
73675
73691
73721
73727
73761
73753
73790
73787
73804
73839
73838
73833
73785
73677
73613
73589
73579
73564
73587
73589
73616
73625
73660
73703
73714
73745
73746
73733
73737
73745
73758
73744
73773
73786
73774
73791
73820
73820
73844
73856
73851
73875
73907
73867
73818
73718
73657
73613
73589
73561
73575
73597
73607
73611
73648
73657
73691
73710
73715
73712
73731
73714
73723
73728
73724
73727
73751
73746
73749
73765
73783
73789
73802
73813
73819
73825
73835
73790
73718
73611
73559
73523
73501
73511
73526
73531
73557
73565
73600
73628
73655
73672
73672
73647
73647
73665
73668
73663
73684
73696
73692
73693
73696
73714
73718
73737
73759
73767
73784
73755
73690
73592
73513
73473
73447
73449
73446
73454
73470
73474
73490
73530
73560
73569
73577
73559
73571
73591
73584
73587
73592
73603
73634
73641
73638
73639
73664
73668
73687
73704
73669
73595
73521
73445
73391
73401
73387
73413
73396
73428
73444
73459
73501
73513
73547
73563
73550
73557
73566
73567
73561
73589
73589
73603
73588
73586
73611
73613
73627
73633
73645
73651
73612
73564
73485
73455
73421
73391
73390
73404
73390
73422
73442
73474
73488
73514
73528
73533
73523
73528
73505
73509
73527
73538
73531
73556
73564
73559
73602
73591
73601
73614
73621
73643
73639
73600
73520
73413
73371
73357
73338
73348
73359
73401
73417
73427
73472
73492
73511
73527
73521
73522
73528
73534
73559
73564
73551
73571
73594
73595
73592
73600
73628
73643
73647
73655
73645
73566
73469
73400
73375
73370
73372
73368
73400
73404
73418
73438
73453
73473
73505
73523
73525
73512
73516
73527
73526
73531
73563
73562
73564
73557
73588
73602
73618
73624
73637
73650
73615
73541
73473
73393
73355
73337
73333
73340
73334
73356
73372
73420
73439
73439
73471
73472
73482
73484
73486
73484
73499
73523
73499
73510
73523
73533
73542
73560
73567
73567
73577
73591
73596
73556
73452
73388
73325
73310
73300
73310
73338
73349
73372
73398
73436
73468
73497
73479
73497
73495
73489
73500
73496
73510
73517
73546
73533
73546
73543
73554
73571
73591
73607
73606
73545
73440
73381
73330
73301
73318
73335
73334
73355
73370
73403
73427
73454
73469
73474
73459
73487
73461
73492
73488
73491
73482
73513
73520
73520
73549
73556
73556
73590
73605
73591
73518
73421
73347
73320
73297
73303
73308
73315
73316
73360
73357
73405
73431
73441
73457
73459
73460
73457
73461
73464
73492
73497
73493
73519
73505
73528
73534
73550
73566
73581
73595
73580
73524
73416
73361
73311
73294
73292
73280
73312
73349
73359
73391
73411
73437
73462
73471
73481
73469
73452
73476
73473
73473
73469
73473
73490
73483
73488
72343
72412
72441
72598
72787
72961
72623
72565
72681
72838
72961
73058
73104
73141
73163
73111
73068
73054
73030
73080
73100
73094
73126
73129
73145
73176
73210
73305
73367
73396
73374
73334
73316
73309
73321
73327
73360
73335
73319
73196
73104
73048
73036
73062
73123
73184
73284
73368
73418
73354
73249
73133
73079
73094
73124
73146
73164
73190
73163
73113
73028
72977
72822
72569
72242
71985
71921
72083
72272
72445
72600
72668
72659
72713
72734
72737
72728
72658
72572
72428
72336
72184
71862
71550
71446
71401
71341
71319
71296
71275
71208
71204
71289
71467
71630
72198
72756
73732
75568
77377
76668
75852
75980
76181
75297
74967
75016
74989
74786
74574
74334
74444
74551
74571
74549
74480
74426
74075
74143
74140
74185
74214
74243
74259
74221
74209
74176
74140
74090
74090
74090
74063
73928
73737
73558
73618
73806
73898
73958
74007
74092
74188
74296
74418
74550
74618
74651
74666
74640
74613
74536
74496
74457
74405
74266
74055
73944
73846
73745
73707
73668
73663
73680
73705
73793
73850
73913
73957
74012
74060
74102
74182
74224
74284
74350
74393
74434
74425
74393
74348
74373
74399
74435
74483
74565
74637
74680
74729
74755
74774
74816
74852
74832
74808
74819
74853
74897
74937
74983
74975
74935
74896
74871
74908
74953
75010
75054
75115
75180
75223
75255
75333
75403
75460
75483
75517
75559
75571
75595
75608
75639
75647
75618
75554
75490
75496
75491
75507
75536
75575
75608
75641
75686
75734
75741
75770
75801
75810
75824
75837
75857
75858
75918
75924
75931
75882
75819
75761
75748
75764
75758
75809
75809
75858
75856
75864
75884
75918
75913
75911
75860
75794
75700
75553
75452
75382
75351
75256
75174
75139
75108
75113
75148
75186
75230
75295
75368
75435
75545
75610
75663
75713
75757
75819
75896
75956
75995
76010
75966
75947
75914
75885
75876
75881
75884
75902
75944
76002
76044
76078
76117
76178
76243
76307
76351
76391
76459
76492
76524
76500
76478
76430
76413
76405
76421
76446
76419
76426
76474
76501
76546
76563
76572
76592
76617
76620
76639
76660
76653
76664
76662
76650
76612
76547
76515
76456
76453
76444
76434
76406
76374
76370
76351
76344
76306
76285
76296
76267
76189
76159
76136
76161
76267
76471
76565
76668
76850
76850
76762
76421
76002
75680
75835
76424
76932
77123
77271
77316
77313
77422
77437
77482
77567
77576
77531
77443
77357
77321
77293
77258
77190
77166
77048
77041
76906
76622
76271
75949
75698
75494
75323
75473
75879
76212
76439
76568
76629
76649
76676
76674
76678
76678
76693
76734
76808
76830
76840
76840
76871
76902
76882
76910
76959
76950
76970
76983
76954
76967
76932
76911
76946
76929
76964
76993
77049
77063
77048
77015
76991
77003
77018
76990
76973
76922
76912
76920
77050
77149
77213
76932
76504
76236
76171
76199
76212
76289
76365
76468
76535
76604
76581
76562
76544
76466
76475
76435
76351
76216
76045
75917
75816
75734
75773
75839
75842
75749
75608
75343
75079
75151
75389
75643
75650
75495
75647
75714
75714
75817
75829
75820
75861
75889
75857
75811
75822
75884
75971
76027
76073
76078
76083
76159
76171
76083
76045
75940
75968
76075
76214
76166
76116
76101
76108
76137
76154
76189
76206
76222
76246
76249
76244
76211
76182
76183
76236
76272
76265
76225
76162
76076
76055
76112
76124
76096
76075
76046
76071
76088
76091
76100
76120
76149
76293
76317
76319
76315
76290
76231
76215
76216
76157
76150
76183
76211
76252
76254
76220
76183
76235
76324
76336
76268
76227
76243
76269
76257
76216
76169
76129
76086
76077
76081
76072
76079
76105
76164
76183
76187
76150
76040
75919
75801
75673
75735
75801
75774
75726
75749
75697
75603
75464
75374
75414
75473
75506
75511
75526
75523
75507
75519
75505
75515
75520
75525
75518
75502
75435
75421
75428
75395
75397
75393
75372
75407
75386
75448
75476
75460
75432
75427
75394
75350
75341
75315
75286
75249
75202
75202
75208
75219
75240
75313
75390
75450
75513
75598
75664
75643
75597
75585
75594
75593
75611
75589
75513
75391
75357
75387
75401
75467
75496
75664
75779
75871
75853
75801
75786
75742
75723
75652
75587
75571
75547
75485
75351
75221
75112
75081
75114
75206
75291
75320
75364
75394
75347
75338
75309
75288
75296
75301
75316
75295
75315
75353
75402
75420
75432
75492
75538
75529
75545
75544
75548
75512
75551
75549
75548
75565
75576
75621
75649
75645
75616
75548
75508
75504
75533
75519
75470
75405
75398
75384
75371
75363
75358
75360
75373
75396
75392
75409
75388
75394
75453
75491
75559
75571
75561
75539
75577
75593
75610
75579
75512
75453
75400
75407
75461
75542
75570
75578
75578
75617
75609
75641
75642
75612
75604
75626
75643
75696
75710
75725
75704
75723
75715
75721
75666
75581
75559
75556
75593
75601
75614
75624
75599
75606
75615
75640
75644
75663
75687
75690
75721
75739
75741
75772
75768
75785
75749
75765
75751
75716
75673
75551
75465
75439
75492
75515
75551
75581
75652
75743
75778
75811
75819
75864
75871
75916
75943
75965
75981
75966
75981
75982
76012
76003
76016
76045
76061
76070
76087
76053
75979
75923
75910
75940
75995
76040
76079
76130
76196
76227
76280
76264
76258
76283
76262
76217
76190
76189
76196
76183
76204
76201
76212
76225
76253
76247
76143
76062
76016
75942
75915
75881
75837
75869
75871
75886
75855
75863
75850
75829
75869
75839
75816
75845
75857
75877
75888
75883
75881
75869
75830
75753
75708
75677
75689
75677
75718
75710
75739
75732
75748
75767
75766
75819
75856
75923
75979
76010
76047
76063
76061
76068
76147
76157
76167
76058
76051
76009
76013
76066
76098
76126
76144
76099
76071
76027
76036
76059
76078
76082
76073
76046
76032
76013
75981
75944
75923
75909
75824
75736
75654
75632
75569
75545
75616
75720
75754
75828
75837
75850
75854
75786
75711
75632
75559
75560
75511
75469
75449
75464
75489
75485
75447
75427
75443
75517
75560
75603
75654
75695
75712
75751
75755
75765
75771
75767
75764
75769
75784
75792
75808
75797
75800
75811
75785
75759
75737
75692
75690
75685
75650
75656
75596
75602
75620
75667
75693
75725
75787
75820
75829
75790
75777
75728
75648
75601
75495
75351
75249
75199
75167
75160
75195
75260
75288
75298
75334
75340
75377
75432
75434
75400
75422
75400
75373
75376
75397
75355
75371
75407
75499
75634
75684
75752
75827
75904
75937
75965
75988
76016
76018
76050
76061
76079
76075
76144
76245
76370
76435
76405
76337
76366
76444
76535
76556
76501
76462
76425
76419
76456
76499
76497
76418
76317
76288
76263
76316
76345
76355
76363
76318
76241
76139
76047
75974
75834
75738
75671
75643
75620
75569
75516
75532
75552
75588
75612
75657
75730
75749
75776
75796
75766
75694
75620
75591
75607
75600
75654
75704
75843
75940
75997
76007
76037
76135
76152
76154
76188
76229
76222
76199
76187
76129
76106
76096
76067
76131
76159
76193
76216
76212
76252
76282
76318
76299
76339
76349
76351
76369
76396
76401
76404
76356
76301
76248
76260
76288
76304
76330
76350
76348
76351
76332
76316
76323
76267
76240
76219
76204
76186
76195
76198
76109
76033
75974
75942
75944
75956
75998
76045
76065
76078
76126
76135
76154
76166
76153
76146
76160
76177
76170
76175
76162
76082
76038
76019
76016
76039
76073
76135
76143
76154
76200
76188
76207
76197
76189
76159
76140
76179
76189
76178
76168
76070
75971
75843
75792
75794
75827
75836
75878
75877
75898
75926
75945
75946
75946
75944
75924
75924
75957
75987
75997
75935
75869
75802
75722
75694
75669
75680
75696
75727
75738
75754
75721
75683
75677
75646
75629
75632
75663
75689
75713
75742
75785
75777
75736
75689
75702
75706
75704
75741
75754
75785
75825
75862
75926
75961
75988
75986
76016
76012
76038
76056
76050
76053
76021
75947
75839
75812
75793
75821
75824
75818
75739
75699
75691
75644
75549
75434
75358
75312
75294
75300
75267
75272
75273
75273
75247
75229
75244
75264
75311
75335
75386
75445
75474
75509
75539
75565
75591
75606
75627
75658
75716
75745
75802
75818
75902
75897
75922
75959
75993
76022
76022
76078
76129
76171
76200
76249
76366
76436
76525
76595
76698
76714
76758
76938
77065
76977
76763
76613
76501
76422
76381
76349
76322
76307
76243
76179
76187
76247
76218
76133
75935
75863
75867
75885
75982
76085
76109
76126
76157
76198
76241
76279
76307
76363
76421
76486
76552
76648
76688
76702
76702
76748
76781
76829
76856
76864
76829
76755
76742
76709
76722
76742
76733
76759
76772
76791
76822
76796
76822
76775
76771
76747
76686
76671
76668
76678
76664
76555
76473
76438
76420
76401
76393
76406
76410
76401
76365
76365
76380
76383
76340
76301
76223
76174
76159
76101
76050
75986
75915
75893
75846
75816
75833
75845
75950
75986
75996
76028
76056
76066
76091
76067
76077
76068
76065
76041
76009
75936
75870
75865
75860
75892
75903
75953
76022
76131
76162
76188
76182
76210
76225
76254
76256
76296
76309
76326
76299
76239
76196
76183
76188
76202
76220
76285
76301
76315
76367
76379
76401
76434
76414
76438
76498
76511
76476
76490
76476
76393
76333
76284
76313
76332
76362
76399
76470
76538
76597
76647
76693
76682
76695
76710
76739
76767
76794
76774
76713
76686
76631
76618
76623
76616
76658
76690
76694
76722
76726
76723
76664
76468
76491
76338
76078
75858
75986
76267
76528
76571
76582
76626
76665
76698
76759
76864
76898
76890
76854
76768
76678
76653
76591
76680
76624
76451
76344
76266
76197
76208
76247
76345
76394
76472
76520
76643
76729
76739
76766
76749
76671
76625
76627
76620
76659
76691
76724
76766
76763
76713
76672
76658
76638
76650
76679
76702
76715
76785
76755
76661
76624
76631
76651
76680
76740
76808
76856
76882
76868
76809
76764
76756
76770
76786
76809
76842
76840
76870
76903
76921
76956
76959
76920
76926
76981
77008
76994
76976
76958
76918
76910
76846
76833
76734
76660
76654
76642
76643
76659
76654
76660
76667
76678
76678
76679
76688
76726
76734
76740
76785
76813
76866
76921
76980
77022
77047
77077
77115
77146
77128
77144
77142
77156
77149
77128
77138
77109
77076
77028
76985
76956
76950
76947
76971
77006
77005
77015
77055
77040
77063
77062
77082
77084
77096
77092
77111
77109
77088
77042
77039
77013
77036
77043
77065
77068
77096
77100
77108
77110
77124
77116
77130
77132
77151
77146
77144
77120
77080
77061
77023
77012
76994
77002
77035
77055
77066
77076
77080
77069
77056
77051
77067
77069
77040
77062
77019
77004
76978
76928
76934
76929
76918
76919
76954
76966
76978
77006
77004
77020
77052
77071
77077
77107
77095
77117
77077
77044
77015
77003
77007
77025
77019
77031
77005
76990
76982
76946
76956
76925
76910
76876
76887
76906
76907
76872
76836
76778
76779
76779
76784
76816
76849
76892
76951
76967
76986
76938
76935
76919
76899
76875
76866
76850
76848
76797
76722
76688
76649
76623
76608
76605
76596
76565
76559
76541
76534
76496
76475
76481
76462
76473
76468
76460
76430
76375
76347
76320
76311
76312
76378
76433
76518
76589
76657
76738
76843
76942
77038
77146
77140
77098
76985
76842
76684
76595
76541
76493
76517
76621
76788
76903
76980
77015
77037
77051
77039
76996
76967
76942
76922
76883
76839
76728
76650
76600
76599
76562
76553
76577
76605
76651
76653
76664
76690
76699
76711
76726
76702
76714
76741
76752
76760
76699
76675
76651
76661
76636
76645
76618
76617
76621
76578
76586
76579
76595
76573
76565
76565
76561
76578
76551
76536
76489
76467
76451
76485
76499
76512
76520
76525
76538
76538
76536
76552
76548
76571
76562
76578
76551
76526
76481
76459
76446
76461
76468
76488
76521
76527
76544
76556
76541
76544
76561
76536
76555
76544
76558
76543
76505
76453
76451
76431
76430
76444
76487
76484
76518
76523
76554
76542
76543
76539
76545
76565
76582
76572
76561
76559
76543
76512
76481
76497
76488
76526
76533
76546
76576
76558
76584
76540
76537
76545
76534
76565
76556
76538
76534
76499
76475
76454
76453
76453
76465
76491
76509
76524
76522
76534
76515
76495
76497
76496
76496
76507
76486
76454
76429
76402
76390
76410
76420
76442
76455
76498
76499
76509
76516
76516
76507
76488
76506
76546
76525
76510
76474
76448
76428
76404
76416
76431
76449
76463
76476
76495
76496
76461
76479
76465
76476
76477
76472
76475
76461
76416
76392
76336
76328
76337
76339
76365
76366
76406
76411
76429
76411
76436
76422
76421
76426
76441
76446
76446
76407
76385
76360
76350
76325
76360
76383
76385
76393
76421
76428
76435
76433
76427
76427
76416
76432
76443
76415
76423
76381
76350
76341
76340
76348
76369
76390
76406
76432
76444
76441
76458
76454
76465
76460
76468
76455
76499
76448
76440
76399
76401
76410
76401
76429
76463
76471
76515
76507
76527
76500
76535
76534
76553
76557
76587
76587
76593
76565
76548
76533
76539
76545
76560
76582
76611
76607
76622
76639
76650
76619
76621
76602
76617
76630
76632
76636
76619
76629
76587
76580
76614
76594
76606
76650
76650
76678
76709
76721
76727
76742
76737
76746
76758
76779
76779
76767
76765
76740
76687
76685
76681
76683
76727
76739
76727
76742
76750
76753
76756
76774
76760
76764
76767
76797
76824
76798
76778
76762
76736
76738
76763
76767
76774
76822
76832
76865
76881
76876
76853
76850
76852
76848
76856
76856
76877
76843
76821
76814
76819
76815
76803
76811
76835
76845
76843
76861
76872
76847
76856
76895
76905
76910
76902
76901
76894
76843
76792
76747
76764
76758
76798
76767
76742
76727
76718
76664
76651
76659
76665
76661
76662
76634
76649
76615
76602
76568
76570
76572
76593
76592
76603
76586
76586
76597
76641
76637
76619
76643
76677
76708
76752
76776
76739
76737
76755
76756
76743
76772
76803
76802
76785
76831
76794
76812
76777
76742
76714
76701
76718
76761
76792
76754
76699
76675
76693
76725
76717
76733
76799
76832
76821
76867
76917
76953
76981
76965
76964
76985
76986
76944
76949
76911
76856
76756
76730
76755
76841
76915
76993
77016
77026
76986
76996
76945
76820
76707
76682
76723
76766
76756
76678
76664
76725
76764
76757
76714
76705
76719
76725
76776
76782
76802
76778
76707
76634
76590
76580
76593
76660
76740
76826
76889
76957
77004
77063
77080
77095
77081
77007
76918
76848
76785
76741
76722
76641
76471
76330
76199
76151
76113
76109
76154
76105
76136
76202
76195
76069
75744
75571
75463
75357
75304
75319
75336
75267
75231
75293
75401
75492
75635
75840
75990
76033
75987
75867
75768
75681
75580
75571
75639
75832
75845
75773
75619
75543
75561
75649
75778
75959
76074
76041
76128
76175
76191
76145
76083
76009
75969
75961
76052
75970
75943
75943
75949
75974
76073
76079
76103
76104
76124
76152
76188
76191
76199
76252
76322
76359
76365
76301
76250
76256
76290
76325
76326
76334
76380
76400
76439
76518
76573
76591
76607
76550
76635
76665
76703
76706
76704
76667
76649
76653
76692
76731
76767
76767
76789
76787
76785
76749
76767
76735
76767
76784
76815
76828
76859
76801
76743
76723
76739
76753
76765
76760
76752
76799
76850
76865
76825
76845
76824
76853
76868
76892
76915
76889
76809
76714
76668
76677
76671
76693
76731
76799
76858
76880
76919
76887
76892
76908
76949
76942
76948
76943
76861
76799
76762
76766
76776
76770
76792
76799
76833
76865
76857
76868
76871
76875
76853
76878
76924
76945
76903
76856
76821
76800
76787
76786
76817
76839
76854
76875
76885
76882
76857
76814
76781
76719
76637
76614
76536
76370
76253
76191
76141
76107
76112
76163
76216
76436
76862
77308
77718
77733
77636
77818
78105
77832
77316
77386
77209
77038
76966
76742
77412
77118
76934
76965
77036
77324
77539
77849
77638
77326
76430
75663
75533
75414
75332
75311
75333
75352
75313
75311
75310
75263
75295
75704
76481
77478
78174
77730
77403
77312
77129
77070
77059
77017
76991
76922
76812
76629
76529
76455
76350
76261
76281
76323
76325
76362
76399
76447
76434
76386
76315
76162
76130
76237
76263
76176
76014
75763
75430
74767
74373
74328
74423
74777
75367
75673
75854
75975
75999
76014
75961
75902
75919
75902
75881
75957
76200
75665
75457
75460
75414
75448
75513
75671
75715
75772
75769
75812
75785
75775
75792
75802
75776
75818
75802
75799
75738
75717
75737
75788
75801
75807
75841
75871
75887
75903
75881
75888
75914
75893
75891
75888
75934
75982
76014
76022
75981
75964
75966
75975
76021
76067
76118
76134
76137
76165
76184
76179
76146
76155
76160
76154
76123
76081
76043
75968
75875
75840
75843
75865
75891
75915
75942
75999
76023
76080
76085
76090
76123
76097
76122
76120
76141
76160
76188
76203
76195
76175
76143
76171
76183
76224
76255
76295
76327
76369
76379
76391
76390
76399
76424
76411
76426
76427
76412
76407
76391
76371
76356
76338
76320
76357
76379
76377
76349
76351
76380
76392
76396
76416
76395
76423
76435
76462
76482
76465
76435
76365
76294
76282
76202
76041
75962
75986
76029
76079
76161
76219
76188
76204
76295
76414
76526
76558
76575
76605
76657
76699
76651
76704
76797
76819
76868
76917
76963
77031
77038
77067
77067
77093
77108
77129
77149
77186
77198
77177
77137
77168
77136
77133
77118
77138
77128
77159
77184
77235
77229
77229
77211
77205
77232
77261
77255
77278
77258
77218
77167
77121
77125
77171
77195
77222
77232
77217
77224
77193
77182
77161
77141
77117
77108
77063
77050
77060
77066
77034
77034
77055
77092
77105
77130
77129
77156
77194
77170
77187
77181
77200
77206
77215
77211
77219
77215
77205
77145
77078
77064
77050
77041
77041
77042
77055
77049
77075
77073
77048
77047
77015
77014
77039
77015
77035
77012
77010
76968
76946
76900
76883
76906
76917
76929
76955
76957
76958
76956
76962
76993
77004
77010
76988
76980
76838
76732
76649
76594
76600
76638
76643
76622
76615
76691
76761
76780
76791
76810
76827
76858
76877
76890
76898
76906
76899
76877
76819
76783
76717
76710
76668
76644
76658
76692
76697
76723
76780
76847
76858
76904
76898
76909
76900
76918
76934
76933
76898
76895
76870
76883
76876
76915
76905
76923
76945
76948
76949
76955
76951
76967
76955
76975
76980
76960
77001
76962
76932
76908
76902
76912
76910
76932
76950
76978
77010
77021
77054
77041
77066
77054
77064
77066
77087
77085
77083
77084
77063
77057
77010
77026
77029
77035
77074
77098
77125
77139
77144
77149
77168
77167
77142
77137
77142
77118
77120
77072
77068
77035
77014
77021
77038
77072
77089
77068
77052
77041
77041
77086
77053
77052
77048
77068
77082
77077
77059
77014
76976
76974
76989
76990
77004
77031
77037
77071
77071
77085
77077
77081
77078
77064
77064
77072
77071
77064
77053
77023
76976
76922
76881
76839
76831
76812
76800
76814
76851
76853
76862
76873
76853
76856
76842
76822
76807
76775
76721
76674
76628
76604
76622
76632
76541
76468
76498
76482
76457
76509
76595
76715
76609
76642
76656
76693
76706
76689
76732
76713
76675
76710
76789
76821
76872
76904
76909
76894
76868
76859
76847
76814
76741
76699
76689
76687
76563
76464
76408
76456
76496
76539
76540
76473
76452
76465
76524
76611
76617
76585
76639
76720
76780
76811
76827
76830
76850
76877
76913
76949
76987
77040
77086
77119
77154
77178
77142
77095
76991
76898
76877
76832
76843
76816
76796
76746
76712
76710
76706
76710
76747
76756
76773
76799
76804
76810
76802
76814
76798
76795
76794
76801
76739
76698
76647
76627
76616
76635
76646
76666
76692
76710
76748
76739
76749
76714
76717
76727
76729
76871
76972
76882
76760
76659
76578
76526
76435
76402
76422
76469
76557
76626
76757
76830
76899
76870
76888
76877
76810
76771
76772
76820
76834
76866
76874
76751
76683
76707
76738
76768
76782
76790
76733
76683
76712
76735
76705
76672
76620
76594
76548
76603
76635
76701
76718
76746
76747
76731
76714
76669
76633
76689
76710
76750
76791
76816
76841
76867
76878
76893
76928
76951
76971
77003
77021
77000
76980
76963
76939
76912
76887
76859
76818
76838
76820
76790
76708
76646
76628
76594
76598
76593
76574
76505
76477
76456
76396
76374
76348
76369
76345
76387
76409
76386
76348
76332
76309
76291
76309
76319
76338
76368
76403
76413
76453
76469
76453
76478
76470
76518
76550
76531
76533
76528
76467
76465
76501
76524
76586
76643
76676
76720
76726
76688
76685
76675
76632
76616
76601
76579
76570
76588
76551
76546
76450
76385
76327
76313
76301
76286
76292
76289
76287
76285
76295
76292
76291
76346
76359
76340
76388
76396
76439
76462
76462
76424
76421
76385
76407
76379
76410
76450
76536
76567
76656
76721
76797
76874
76952
76974
76986
77019
77054
77071
77101
77101
77109
77134
77155
77172
77182
77198
77219
77239
77240
77267
77227
77169
77119
77070
77071
77068
77065
77068
77096
77100
77128
77153
77157
77160
77153
77170
77193
77199
77179
77191
77169
77185
77184
77197
77220
77222
77236
77227
77244
77241
77252
77209
77192
77149
77089
77002
76934
76873
76839
76793
76771
76735
76706
76672
76615
76613
76557
76548
76470
76380
76277
76226
76162
76131
76057
75997
75960
75925
75899
75891
75891
75904
75932
75940
75945
75964
75984
75986
75977
76002
75937
75845
75761
75747
75710
75695
75657
75662
75665
75669
75683
75723
75733
75767
75800
75835
75901
75980
76106
76279
76463
76595
76688
76728
76730
76754
76781
76755
76777
76805
76813
76795
76813
76827
76817
76794
76782
76782
76787
76795
76792
76719
76591
76408
76178
75940
75626
75365
75301
75286
75310
75400
75473
75662
75793
75962
76174
76336
76430
77701
77687
76509
76520
76659
77079
78426
77106
76453
76228
75820
75545
75326
75153
74981
74822
74688
74623
74570
74503
74307
74139
73952
73803
73757
73719
73680
73650
73641
73613
73591
73583
73537
73440
73417
73392
73372
73337
73318
73316
73094
72882
72903
73064
73219
73359
73478
73602
73709
73790
73923
74056
74098
74171
74160
74066
74130
74142
74427
74379
73593
71971
72257
69379
68760
68886
69000
69452
70273
71338
72162
72469
72700
73076
73508
73667
73742
73781
73724
73608
73539
73378
73203
73086
73078
73288
73750
74069
73968
74248
75484
74510
73915
73633
73368
73251
73176
73103
73033
73006
72973
72954
72895
72897
72865
72876
72820
72738
72724
72734
72725
72716
72646
72590
72553
72462
72423
72326
72333
72362
72433
72473
72482
72516
72500
72497
72522
72534
72531
72483
72465
72466
72491
72503
72489
72498
72559
72608
72639
72631
72677
72723
72763
72800
72849
72874
72936
72965
73009
73067
73100
73078
73045
73038
73025
73001
73025
73067
73083
73118
73129
73167
73198
73196
73218
73258
73252
73194
73257
73294
73280
73229
73218
73312
73286
73230
73180
73176
73082
72982
72979
73021
72960
72849
72811
72816
72765
72736
72711
72719
72674
72647
72648
72617
72575
72520
72483
72377
72285
72202
72190
72141
72076
72053
72041
72032
72012
71992
72005
72029
72045
72023
72024
72015
72004
72026
72063
72077
72105
72143
72178
72216
72252
72257
72267
72308
72330
72356
72327
72310
72259
72252
72291
72307
72299
72279
72297
72312
72292
72283
72243
72274
72246
72215
72223
72159
72096
72034
71986
71930
71903
71868
71869
71867
71700
71514
71354
71170
70977
70874
70812
70760
70710
70653
70653
70753
70949
71105
71181
71330
71523
71675
71741
71827
71940
72005
72063
72105
72161
72189
72206
72209
72271
72321
72330
72318
72289
72309
72326
72330
72339
72362
72388
72430
72444
72477
72478
72475
72472
72476
72465
72451
72451
72461
72450
72476
72455
72460
72563
72544
72432
72392
72361
72312
72231
72213
72239
72217
72200
72239
72334
72304
72280
72275
72292
72309
72256
72190
72205
72236
72163
72143
72182
72206
72200
72187
72133
72108
72144
72157
72184
72181
72168
72178
72232
72261
72242
72263
72266
72255
72240
72260
72261
72266
72249
72287
72294
72345
72387
72346
72347
72329
72306
72366
72390
72394
72416
72416
72446
72443
72459
72451
72470
72460
72483
72502
72481
72523
72585
72636
72623
72642
72752
72806
72678
72579
72629
72624
72593
72586
72606
72596
72614
72600
72592
72556
72527
72506
72493
72508
72485
72511
72499
72513
72545
72539
72537
72532
72534
72513
72481
72470
72486
72475
72487
72547
72574
72568
72572
72597
72614
72633
72649
72663
72671
72681
72701
72711
72736
72742
72740
72753
72727
72684
72631
72656
72678
72697
72623
72589
72538
72377
72299
72239
72236
72240
72180
72071
71991
71968
71964
71944
71931
71945
72000
72008
72034
72115
72257
72380
72471
72536
72584
72633
72641
72641
72647
72687
72704
72732
72769
72805
72860
72902
72929
72970
72926
72904
72896
72876
72891
72899
72897
72910
72937
72945
72952
72947
72989
72984
72971
72954
72987
73016
73011
72996
73011
73049
73033
72996
72976
72964
72955
72985
73048
73052
73018
72986
72953
72966
72935
72855
72810
72840
72891
72873
72903
72928
72933
72913
72928
72949
72884
72848
72831
72830
72797
72802
72860
72879
72918
72957
72972
72976
73002
73028
73018
72972
72970
72914
72865
72830
72790
72726
72701
72702
72683
72667
72658
72649
72686
72748
72807
72832
72889
72972
73046
73020
73059
73087
73097
73100
73097
73067
73087
73039
72984
73003
73012
72973
72887
72870
72882
72874
72885
72870
72886
72928
72928
72980
73035
73045
72978
72922
72883
72888
72835
72798
72872
72844
72706
72708
72772
72744
72666
72636
72639
72705
72710
72739
72791
72853
72808
72798
72895
72950
72925
72877
72892
72886
72874
72885
72967
72999
73006
73082
73155
73248
73265
73278
73348
73441
73461
73470
73501
73562
73571
73558
73516
73518
73505
73471
73450
73435
73466
73422
73420
73442
73435
73461
73446
73481
73441
73411
73413
73449
73435
73379
73330
73298
73222
73172
73231
73250
73267
73306
73263
73200
73149
73165
73152
73147
73176
73162
73030
72919
72980
72977
72883
72858
73011
73070
72890
72905
73128
73271
73231
73167
73202
73187
73090
73035
73089
73044
72935
72920
72926
72860
72752
72635
72583
72481
72359
72273
72257
72214
72131
72092
72126
72226
72205
72112
72177
72377
72475
72492
72502
72607
72645
72637
72683
72766
72845
72867
72894
72959
73035
73065
73091
73110
73121
73122
73137
73102
73074
73071
73013
72943
72915
72893
72819
72786
72751
72627
72596
72595
72593
72598
72664
72692
72572
72553
72621
72723
72720
72736
72749
72772
72769
72762
72802
72846
72850
72777
72721
72717
72696
72612
72572
72522
72348
72147
72096
72162
72117
71977
71897
71959
72138
72306
72368
72453
72635
72818
72921
72970
72992
73085
73140
73199
73223
73214
73129
73002
72777
72495
72145
71769
71597
71623
71912
72187
72254
72308
72294
72279
72192
71977
71779
71777
71848
71997
72035
72102
72234
72218
72047
72203
72255
72376
72526
72677
72772
72772
72722
72641
72517
72337
72159
71999
71837
71726
71753
71808
71813
71729
71616
71525
71312
71129
71662
72449
73352
74130
74303
75121
73195
74818
74074
74940
75441
75433
75803
75830
75572
75433
75625
76255
76409
76036
76326
76799
76955
77039
77071
77083
76971
76769
76630
76540
76450
76529
76561
76607
76641
76712
76762
76795
76790
76693
76637
76655
76643
76631
76674
76716
76688
76686
76714
76750
76833
76817
76857
76970
77047
77090
77081
77045
77041
77041
76989
76957
76923
76888
76848
76808
76790
76747
76754
76777
76806
76771
76765
76827
76797
76767
76661
76668
76627
76576
76592
76575
76582
76488
76361
76361
76348
76367
76310
76244
76238
76210
76154
76091
76077
76113
76149
76200
76247
76261
76252
76273
76223
76213
76153
76152
76228
76219
76159
76103
76079
76056
76043
76008
75969
75953
75969
75987
76003
76040
76128
76188
76236
76278
76314
76347
76254
76252
76285
76306
76312
76304
76357
76385
76366
76409
76411
76430
76433
76427
76434
76457
76458
76511
76557
76566
76566
76550
76601
76614
76577
76568
76549
76564
76578
76572
76539
76567
76513
76508
76492
76508
76527
76529
76549
76596
76603
76529
76533
76537
76560
76542
76526
76548
76540
76483
76445
76407
76350
76340
76364
76342
76328
76317
76347
76381
76380
76338
76352
76345
76363
76376
76379
76459
76433
76425
76393
76344
76332
76331
76361
76325
76323
76370
76374
76373
76370
76383
76404
76388
76386
76329
76312
76272
76189
76116
76059
76017
76023
76020
76054
76072
76090
76110
76139
76159
76176
76193
76208
76267
76310
76381
76399
76381
76333
76309
76302
76292
76273
76247
76226
76190
76148
76029
75938
75929
75893
75876
75863
75860
75868
75844
75774
75757
75718
75724
75732
75741
75772
75775
75770
75769
75763
75813
75841
75854
75825
75838
75779
75819
75829
75743
75646
75588
75594
75655
75696
75753
75792
75855
75918
75974
76009
76063
76130
76182
76228
76282
76294
76405
76473
76468
76491
76504
76542
76556
76569
76599
76633
76628
76618
76594
76582
76559
76573
76559
76600
76582
76548
76505
76469
76454
76441
76377
76378
76379
76371
76386
76320
76297
76250
76235
76207
76162
76148
76160
76143
76092
76066
76050
76051
76052
76020
76031
76043
75995
76031
76065
75965
75803
75634
75461
75215
75124
75001
74926
74945
74995
75032
75096
75208
75361
75491
75460
75522
75585
75661
75718
75790
75882
75930
75990
76020
76079
76090
76115
76156
76155
76162
76156
76198
76178
76195
76189
76222
76221
76272
76308
76325
76357
76415
76437
76426
76357
76274
76228
76256
76239
76266
76302
76319
76326
76350
76382
76358
76340
76300
76240
76187
76144
76112
76066
76006
75956
75909
76020
76140
76152
76211
76234
76272
76329
76362
76396
76339
76257
76303
76326
76402
76442
76295
76195
76147
76209
76217
76234
76254
76236
76266
76302
76366
76436
76518
76566
76621
76679
76726
76751
76805
76773
76695
76640
76632
76642
76633
76663
76671
76708
76757
76753
76785
76792
76815
76814
76834
76868
76911
76903
76928
76931
76924
76944
76978
77003
77037
77042
77063
77059
77074
77059
77090
77095
77105
77111
77171
77225
77278
77292
77306
77309
77275
77298
77401
77396
77389
77394
77459
77481
77434
77423
77438
77457
77426
77428
77407
77388
77377
77342
77317
77133
77027
77015
77001
76974
76935
76955
76944
76983
76971
76965
76966
76989
77028
77049
77059
77062
77059
77064
77040
77027
77013
76998
77015
77100
77199
77293
77491
77516
77472
77469
77521
77577
77591
77605
77570
77525
77497
77483
77484
77446
77429
77437
77445
77424
77431
77429
77377
77359
77359
77348
77320
77310
77311
77314
77265
77203
77173
77173
77174
77152
77140
77136
77133
77073
77004
76964
76898
76830
76781
76729
76657
76629
76563
76449
76394
76417
76395
76405
76456
76476
76553
76615
76646
76676
76714
76742
76764
76813
76804
76840
76832
76828
76812
76759
76718
76731
76712
76718
76720
76760
76742
76783
76776
76779
76804
76817
76824
76846
76822
76845
76858
76834
76759
76670
76629
76579
76549
76607
76624
76635
76566
76520
76436
76393
76340
76348
76370
76413
76446
76536
76586
76622
76626
76659
76703
76672
76721
76751
76797
76793
76812
76831
76847
76835
76864
76861
76860
76870
76868
76850
76832
76825
76771
76717
76650
76635
76621
76619
76623
76635
76649
76654
76691
76694
76737
76748
76748
76779
76783
76775
76827
76844
76841
76859
76795
76788
76785
76789
76792
76788
76817
76835
76873
76867
76899
76915
76909
76917
76940
76968
77004
77019
77114
77102
77080
76944
76844
76773
76769
76823
76910
76996
77074
77061
77073
77086
77125
77144
77194
77209
77240
77254
77263
77280
77303
77294
77272
77249
77257
77228
77198
77194
77176
77179
77184
77220
77259
77257
77271
77257
77242
77187
77188
77158
77179
77172
77174
77179
77144
77150
77171
77181
77193
77217
77224
77217
77242
77247
77277
77252
77243
77249
77241
77253
77251
77265
77289
77266
77258
77253
77177
77134
77126
77100
77113
77128
77169
77197
77214
77205
77206
77181
77194
77237
77258
77290
77321
77387
77418
77447
77504
77531
77566
77501
77463
77436
77388
77380
77389
77415
77405
77424
77450
77481
77458
77467
77456
77465
77453
77465
77463
77463
77477
77492
77493
77524
77545
77545
77510
77469
77419
77370
77353
77343
77346
77363
77377
77396
77415
77400
77407
77403
77402
77391
77355
77389
77402
77409
77425
77437
77461
77472
77481
77466
77401
77314
77250
77243
77236
77220
77214
77221
77237
77235
77231
77218
77215
77192
77212
77211
77231
77271
77268
77292
77328
77363
77392
77368
77310
77209
77174
77116
77076
77080
77100
77100
77104
77133
77168
77238
77238
77273
77286
77329
77381
77402
77407
77453
77442
77496
77451
77426
77348
77325
77314
77303
77256
77245
77302
77380
77388
77365
77366
77353
77345
77361
77336
77355
77374
77356
77359
77363
77374
77374
77336
77290
77234
77205
77217
77229
77250
77253
77269
77265
77285
77334
77354
77370
77406
77439
77470
77516
77562
77567
77598
77615
77614
77650
77644
77573
77560
77547
77545
77541
77540
77548
77588
77592
77590
77605
77629
77624
77630
77638
77640
77657
77642
77674
77665
77676
77667
77674
77636
77575
77533
77497
77502
77513
77535
77535
77579
77595
77629
77636
77649
77631
77649
77678
77669
77672
77671
77695
77699
77709
77705
77703
77697
77633
77572
77538
77520
77510
77526
77495
77507
77523
77535
77553
77573
77559
77569
77572
77564
77579
77590
77593
77593
77592
77595
77607
77603
77583
77548
77485
77430
77417
77389
77394
77418
77420
77415
77441
77424
77414
77434
77417
77396
77409
77373
77374
77372
77355
77365
77340
77346
77337
77290
77253
77177
77123
77098
77078
77074
77110
77142
77192
77231
77262
77288
77199
77134
77050
76932
76856
76819
76831
76812
76775
76829
76897
76995
77071
77065
77055
77075
77079
77075
77168
77224
77303
77377
77446
77472
77531
77569
77575
77603
77580
77589
77588
77603
77620
77623
77623
77582
77549
77441
77397
77354
77346
77339
77345
77349
77354
77358
77338
77355
77336
77318
77329
77307
77312
77317
77323
77327
77332
77329
77331
77340
77331
77332
77274
77190
77148
77137
77114
77108
77111
77144
77143
77169
77178
77185
77200
77194
77215
77220
77229
77233
77254
77270
77277
77287
77292
77313
77335
77288
77242
77182
77148
77124
77123
77130
77145
77152
77152
77173
77210
77208
77222
77257
77341
77354
77364
77391
77357
77320
77229
77110
76959
76880
76823
76776
76743
76716
76698
76780
76808
76847
76905
76914
76909
76924
76922
76924
76954
76980
77012
77012
77043
77040
77064
77079
77096
77100
77117
77153
77181
77181
77170
77129
77049
77054
77028
77012
77033
77040
77042
77058
77055
77085
77075
77101
77111
77115
77132
77155
77160
77150
77168
77182
77195
77199
77221
77206
77193
77129
77067
77068
77070
77091
77101
77142
77142
77181
77207
77211
77270
77251
77257
77240
77231
77246
77261
77265
77271
77277
77298
77303
77323
77322
77279
77215
77189
77165
77158
77189
77192
77211
77237
77245
77268
77248
77243
77210
77188
77167
77149
77146
77134
77137
77154
77185
77193
77208
77171
77118
77085
77036
77024
77050
77039
77088
77100
77090
77131
77129
77123
77146
77157
77181
77184
77184
77173
77197
77221
77211
77244
77254
77235
77166
77100
77090
77094
77106
77107
77111
77159
77159
77210
77217
77243
77256
77281
77284
77310
77335
77388
77388
77406
77434
77462
77510
77512
77496
77447
77374
77356
77320
77307
77325
77365
77393
77406
77428
77429
77468
77465
77482
77495
77515
77527
77530
77517
77484
77487
77487
77493
77490
77463
77389
77327
77279
77264
77281
77286
77313
77342
77369
77428
77432
77445
77465
77469
77466
77477
77508
77496
77536
77508
77496
77500
77512
77535
77469
77431
77371
77304
77316
77327
77316
77338
77368
77408
77438
77452
77446
77485
77475
77478
77485
77488
77507
77535
77525
77522
77518
77528
77480
77439
77377
77339
77315
77323
77346
77348
77373
77409
77430
77456
77481
77496
77498
77515
77532
77547
77562
77572
77604
77606
77635
77632
77604
77567
77475
77416
77386
77379
77391
77389
77422
77452
77471
77528
77543
77566
77567
77562
77580
77574
77612
77611
77605
77624
77621
77629
77642
77626
77604
77514
77461
77410
77393
77384
77408
77395
77417
77426
77427
77441
77447
77461
77438
77444
77444
77432
77436
77433
77433
77446
77445
77421
77420
77412
77405
77370
77296
77222
77190
77187
77201
77188
77201
77221
77246
77248
77286
77280
77308
77285
77300
77280
77314
77311
77327
77317
77330
77328
77336
77344
77349
77360
77322
77280
77219
77159
77127
77147
77163
77159
77168
77167
77181
77202
77194
77199
77180
77200
77204
77216
77218
77220
77240
77244
77258
77257
77288
77272
77279
77232
77195
77099
77075
77075
77108
77094
77118
77136
77159
77196
77224
77226
77226
77242
77252
77234
77264
77281
77297
77321
77306
77311
77335
77323
77299
77266
77183
77156
77112
77134
77124
77160
77164
77189
77203
77212
77241
77224
77244
77260
77246
77248
77247
77270
77273
77295
77302
77300
77306
77313
77316
77275
77208
77159
77145
77125
77135
77144
77158
77186
77186
77206
77207
77219
77226
77212
77220
77216
77237
77239
77222
77241
77240
77278
77263
77258
77280
77262
77239
77146
77112
77088
77094
77097
77098
77113
77140
77142
77178
77191
77199
77197
77190
77198
77213
77209
77214
77239
77245
77252
77256
77282
77275
77288
77269
77227
77175
77075
77046
77049
77048
77059
77087
77090
77105
77144
77149
77163
77191
77180
77205
77215
77208
77219
77209
77222
77230
77247
77250
77291
77269
77247
77180
77105
77067
77068
77089
77067
77090
77111
77128
77140
77151
77202
77197
77202
77176
77193
77179
77204
77212
77219
77242
77223
77257
77265
77290
77211
77158
77109
77080
77071
77074
77073
77100
77112
77137
77143
77169
77170
77181
77179
77171
77177
77203
77208
77229
77232
77235
77247
77267
77269
77265
77217
77161
77112
77082
77073
77043
77074
77076
77064
77100
77121
77147
77167
77177
77182
77187
77182
77182
77194
77218
77212
77227
77220
77244
77251
77249
77258
77226
77190
77097
77069
77065
77052
77070
77076
77079
77104
77110
77130
77159
77167
77166
77173
77149
77161
77171
77172
77179
77183
77193
77200
77209
77240
77228
77244
77230
77140
77089
77046
77037
77023
77042
77040
77067
77095
77116
77126
77147
77143
77158
77174
77154
77164
77180
77167
77177
77187
77206
77204
77208
77218
77238
77236
77198
77126
77061
77032
77045
77046
77055
77064
77095
77106
77145
77153
77175
77169
77163
77171
77157
77169
77180
77186
77167
77184
77198
77202
77208
77199
77174
77139
77073
77029
77009
76992
77014
77047
77070
77075
77095
77128
77139
77139
77138
77157
77145
77155
77156
77142
77159
77194
77187
77203
77211
77200
77186
77127
77044
77030
76984
76992
76980
76995
77023
77016
77033
77067
77094
77083
77104
77110
77098
77099
77098
77119
77116
77130
77129
77131
77129
77153
77133
77085
77020
76953
76944
76919
76909
76927
76952
76962
76984
76990
77007
77021
77036
77044
77046
77037
77046
77077
77039
77054
77058
77059
77060
77068
77065
77080
77017
76952
76906
76862
76855
76859
76857
76875
76890
76917
76938
76951
76966
76972
76967
76966
76973
76994
76985
76987
76998
76999
77001
77015
77040
77040
77027
76996
76931
76883
76840
76826
76846
76834
76850
76876
76911
76918
76956
76980
76981
76982
76980
76991
76995
77002
77020
77008
77032
77028
77042
77061
77046
77030
76965
76909
76860
76857
76858
76856
76866
76901
76932
76972
76973
76975
76994
77002
77007
76991
77026
77016
77013
77046
77051
77071
77087
77081
77074
77032
76950
76913
76890
76882
76893
76879
76905
76928
76953
76982
77003
77002
77007
77016
77029
77023
77041
77047
77041
77057
77071
77067
77067
77088
77085
77065
76997
76918
76900
76888
76887
76892
76896
76919
76921
76952
76957
76979
76985
76993
77007
76983
77002
77016
77021
77013
77038
77035
77043
77062
77064
77061
77079
77045
76971
76918
76863
76871
76862
76880
76896
76894
76931
76930
76954
76971
76988
76994
76968
76962
76981
76993
76978
76982
77012
77015
77031
77033
77023
77037
77055
77020
76949
76890
76846
76844
76839
76864
76841
76874
76886
76899
76926
76940
76953
76943
76939
76951
76949
76934
76961
76945
76943
76967
76976
77000
76991
76975
76983
76941
76884
76830
76793
76794
76799
76803
76832
76857
76871
76893
76908
76941
76920
76924
76928
76934
76933
76950
76957
76961
76978
76962
76949
76957
76967
76956
76891
76835
76793
76762
76785
76782
76799
76805
76832
76834
76874
76873
76882
76889
76879
76872
76892
76867
76911
76888
76906
76921
76911
76944
76928
76922
76865
76795
76746
76726
76701
76709
76732
76744
76749
76755
76785
76821
76831
76838
76836
76839
76851
76863
76863
76857
76887
76891
76887
76900
76910
76918
76943
76907
76851
76789
76751
76733
76725
76746
76759
76777
76780
76799
76853
76827
76855
76860
76881
76867
76878
76870
76890
76888
76890
76884
76894
76911
76927
76948
76934
76908
76855
76812
76770
76764
76757
76779
76777
76785
76803
76818
76850
76867
76874
76882
76895
76887
76895
76899
76921
76909
76923
76933
76943
76954
76962
76956
76955
76881
76811
76773
76775
76762
76799
76802
76823
76842
76863
76872
76903
76917
76905
76910
76903
76917
76932
76939
76927
76968
76946
76971
76977
76972
76952
76892
76840
76798
76798
76792
76817
76825
76822
76839
76868
76878
76904
76880
76905
76901
76913
76906
76916
76928
76926
76941
76939
76952
76982
76967
76929
76887
76817
76792
76783
76779
76801
76831
76836
76862
76877
76892
76914
76907
76927
76909
76912
76919
76936
76924
76927
76935
76966
76961
76962
76967
76954
76874
76826
76798
76789
76794
76811
76817
76825
76845
76870
76878
76892
76906
76913
76916
76902
76914
76916
76926
76929
76934
76965
76934
76969
76991
76981
76941
76875
76820
76777
76764
76778
76771
76797
76787
76802
76840
76854
76872
76866
76866
76877
76887
76885
76880
76905
76883
76907
76908
76923
76927
76944
76941
76891
76856
76773
76740
76747
76761
76763
76803
76796
76824
76849
76877
76883
76892
76869
76879
76876
76877
76889
76906
76903
76924
76901
76918
76920
76908
76873
76804
76761
76719
76708
76732
76744
76763
76778
76782
76806
76812
76804
76825
76829
76832
76852
76841
76830
76842
76868
76864
76885
76890
76895
76863
76773
76721
76703
76666
76693
76715
76700
76729
76745
76779
76818
76826
76822
76823
76821
76835
76824
76791
76768
76786
76767
76785
76769
76790
76739
76629
76593
76559
76515
76373
76323
76371
76308
76219
75974
75845
75710
75658
75657
75655
75820
75835
75836
75814
75907
75977
76038
76064
76132
76205
76268
76257
76362
76577
76689
76713
76730
76719
76760
76772
76770
76788
76766
76754
76739
76727
76694
76693
76699
76736
76875
77031
77065
77096
77138
77152
77138
77144
77117
77003
76917
76869
76833
76803
76833
76824
76877
76976
77028
77064
77079
77109
77139
77146
77151
77150
77161
77143
77169
77196
77194
77224
77242
77228
77204
77150
77127
77100
77094
77107
77131
77160
77153
77177
77179
77216
77226
77249
77245
77243
77227
77230
77251
77271
77271
77263
77274
77280
77269
77218
77183
77136
77125
77127
77155
77151
77172
77170
77191
77218
77234
77239
77242
77245
77241
77269
77269
77265
77274
77270
77266
77257
77275
77258
77250
77196
77167
77137
77154
77156
77154
77171
77172
77200
77198
77210
77224
77219
77228
77218
77240
77244
77242
77271
77279
77298
77315
77311
77310
77292
77266
77263
77212
77216
77231
77246
77267
77278
77290
77296
77333
77347
77350
77359
77353
77331
77356
77363
77362
77363
77360
77377
77370
77398
77402
77349
77315
77279
77293
77275
77274
77276
77280
77293
77292
77301
77289
77304
77302
77289
77300
77293
77295
77281
77297
77305
77301
77299
77325
77299
77321
77311
77300
77250
77198
77186
77180
77204
77208
77186
77208
77212
77216
77237
77234
77258
77255
77252
77234
77256
77240
77235
77229
77232
77240
77238
77239
77242
77257
77238
77240
77256
77248
77186
77142
77123
77106
77117
77115
77130
77133
77152
77157
77156
77184
77165
77173
77181
77179
77169
77165
77163
77157
77166
77164
77183
77175
77200
77199
77191
77195
77199
77200
77189
77163
77108
77098
77079
77086
77113
77082
77107
77117
77129
77126
77139
77133
77161
77158
77128
77136
77135
77133
77127
77131
77135
77149
77146
77147
77146
77161
77142
77133
77107
77073
77047
77044
77040
77058
77037
77057
77057
77084
77087
77108
77122
77113
77101
77107
77091
77103
77091
77090
77095
77090
77087
77112
77104
77103
77096
77050
77029
76994
77017
77021
77050
77051
77056
77070
77073
77069
77088
77095
77083
77081
77088
77092
77094
77077
77074
77068
77097
77109
77088
77111
77100
77097
77038
77011
77015
77012
77016
77033
77033
77061
77057
77073
77070
77094
77097
77099
77109
77086
77085
77108
77114
77134
77126
77145
77131
77128
77144
77107
77099
77065
77028
77021
77032
77046
77036
77046
77048
77055
77075
77089
77085
77090
77120
77116
77104
77114
77122
77125
77125
77136
77138
77158
77161
77163
77162
77156
77155
77135
77098
77062
77050
77050
77061
77060
77082
77086
77094
77100
77091
77118
77115
77125
77119
77128
77123
77134
77142
77150
77135
77145
77144
77144
77157
77146
77179
77183
77178
77147
77084
77085
77081
77061
77064
77063
77063
77073
77089
77096
77095
77113
77122
77130
77111
77092
77106
77109
77085
77097
77107
77090
77114
77117
77098
77128
77134
77146
77086
77052
77026
77017
76997
76979
77000
77012
77024
77016
77019
77029
77038
77057
77038
77060
77050
77046
77048
77030
77074
77054
77041
77057
77054
77068
77057
77066
77048
76979
76957
76953
76939
76950
76942
76971
76954
76965
76975
76990
76987
76990
76988
76988
76978
77004
76999
76994
77003
77003
77009
77001
77005
77024
77000
76981
76939
76896
76901
76903
76884
76919
76929
76927
76938
76961
76963
76961
76979
76962
76969
76991
76961
76971
76962
76974
76992
76973
76971
76994
77010
76979
76934
76897
76894
76863
76876
76862
76870
76890
76895
76897
76921
76927
76945
76938
76916
76933
76943
76938
76954
76939
76941
76946
76952
76962
76949
76970
76966
76945
76904
76883
76847
76859
76851
76853
76864
76844
76852
76875
76890
76884
76892
76914
76895
76904
76902
76902
76911
76909
76912
76923
76924
76907
76920
76922
76926
76940
76931
76891
76828
76790
76776
76770
76770
76759
76751
76773
76786
76770
76773
76761
76773
76760
76749
76740
76723
76708
76700
76669
76694
76670
76637
76632
76661
76636
76623
76633
76632
76621
76580
76516
76497
76479
76459
76456
76475
76485
76477
76451
76464
76472
76483
76471
76461
76469
76454
76446
76414
76427
76409
76421
76409
76411
76412
76415
76423
76399
76403
76357
76323
76294
76270
76269
76264
76275
76277
76286
76272
76291
76304
76317
76314
76282
76286
76303
76286
76287
76299
76306
76316
76312
76299
76316
76315
76318
76323
76279
76235
76219
76193
76197
76206
76212
76212
76221
76233
76243
76240
76255
76266
76267
76270
76263
76263
76266
76292
76286
76274
76263
76275
76277
76293
76298
76269
76219
76203
76184
76174
76164
76195
76197
76200
76214
76230
76250
76248
76261
76269
76265
76269
76253
76256
76260
76277
76283
76266
76269
76279
76287
76292
76301
76290
76235
76202
76175
76175
76174
76165
76179
76198
76185
76214
76233
76237
76248
76255
76255
76247
76254
76254
76247
76254
76261
76271
76272
76264
76285
76279
76264
76309
76289
76277
76248
76186
76166
76170
76152
76154
76156
76170
76187
76183
76215
76213
76217
76233
76223
76225
76226
76234
76230
76237
76254
76237
76259
76242
76227
76262
76247
76257
76247
76269
76224
76189
76135
76130
76139
76132
76143
76149
76167
76178
76187
76207
76199
76214
76195
76211
76204
76212
76199
76209
76229
76244
76229
76235
76236
76247
76268
76264
76255
76259
76227
76181
76157
76136
76124
76147
76158
76179
76183
76202
76207
76234
76237
76242
76256
76235
76253
76237
76236
76249
76243
76280
76299
76301
76303
76317
76312
76343
76302
76259
76224
76212
76193
76207
76217
76215
76224
76222
76250
76266
76302
76309
76291
76309
76310
76319
76302
76304
76305
76325
76338
76335
76329
76343
76355
76351
76320
76292
76259
76247
76249
76249
76263
76274
76288
76300
76303
76330
76330
76346
76344
76346
76366
76367
76345
76372
76395
76389
76391
76371
76397
76406
76421
76416
76375
76317
76284
76287
76288
76302
76304
76311
76320
76317
76340
76362
76357
76378
76358
76392
76381
76382
76383
76392
76399
76422
76412
76402
76413
76429
76429
76437
76457
76436
76413
76344
76320
76306
76302
76322
76303
76305
76309
76329
76351
76365
76369
76373
76382
76378
76386
76361
76400
76387
76372
76388
76384
76371
76387
76402
76422
76414
76418
76440
76446
76433
76400
76347
76331
76315
76307
76345
76314
76331
76335
76366
76375
76390
76405
76400
76412
76398
76377
76381
76394
76401
76402
76407
76414
76441
76437
76448
76454
76459
76465
76459
76507
76484
76448
76408
76356
76370
76336
76383
76368
76376
76387
76388
76403
76414
76433
76432
76442
76458
76426
76440
76433
76443
76436
76457
76451
76459
76447
76438
76477
76463
76471
76514
76485
76436
76398
76388
76363
76368
76365
76386
76382
76390
76398
76428
76448
76436
76437
76464
76449
76447
76455
76457
76456
76465
76466
76473
76499
76483
76502
76498
76497
76452
76427
76367
76362
76367
76365
76390
76414
76424
76423
76436
76459
76460
76474
76464
76469
76467
76476
76489
76489
76490
76528
76538
76550
76563
76577
76552
76533
76460
76430
76378
76403
76392
76402
76400
76412
76440
76439
76454
76476
76492
76490
76492
76490
76478
76495
76481
76492
76499
76494
76504
76528
76529
76534
76531
76525
76466
76435
76407
76397
76392
76391
76411
76427
76428
76431
76451
76476
76476
76496
76500
76495
76503
76485
76487
76479
76492
76502
76482
76502
76503
76523
76519
76510
76514
76484
76435
76394
76386
76386
76367
76385
76393
76400
76413
76448
76441
76462
76457
76470
76469
76465
76477
76463
76486
76469
76482
76487
76494
76493
76498
76479
76501
76519
76511
76526
76512
76429
76400
76373
76360
76356
76351
76382
76357
76356
76382
76409
76405
76417
76418
76412
76413
76399
76410
76410
76382
76420
76411
76412
76429
76434
76453
76446
76442
76437
76461
76434
76359
76328
76312
76307
76293
76310
76304
76309
76326
76353
76344
76378
76364
76363
76370
76366
76362
76360
76354
76380
76362
76384
76395
76396
76401
76401
76404
76405
76375
76328
76277
76282
76281
76241
76263
76274
76285
76303
76276
76313
76339
76323
76365
76354
76342
76352
76352
76348
76339
76360
76380
60954
76374
76351
76376
76353
76323
76283
76257
76244
76247
76246
76262
76255
76280
76296
76315
76326
76324
76331
76352
76348
76342
76358
76367
76360
76373
76368
76384
76387
76386
76400
76407
76369
76322
76282
76267
76279
76282
76269
76288
76291
76285
76303
76329
76315
76335
76336
76345
76347
76341
76345
76345
76353
76366
76366
76357
76382
76380
76355
76400
76377
76355
76298
76254
76236
76217
76224
76234
76249
76235
76230
76269
76272
76263
76296
76273
76291
76270
76275
76265
76296
76284
76289
76295
76311
76319
76303
76313
76298
76304
76308
76320
76273
76263
76214
76169
76140
76160
76171
76169
76185
76195
76213
76214
76230
76243
76252
76222
76232
76237
76221
76251
76222
76203
76217
76234
76232
76226
76236
76238
76227
76245
76247
76215
76183
76126
76100
76075
76077
76087
76096
76095
76107
76095
76118
76135
76118
76147
76140
76102
76118
76102
76125
76113
76135
76141
76136
76134
76146
76149
76150
76170
76137
76106
76034
76040
76026
76014
76030
76038
76054
76061
76074
76095
76116
76127
76147
76113
76129
76128
76129
76123
76152
76169
76152
76160
76164
76169
76192
76190
76137
76075
76079
76020
76040
76054
76054
76070
76075
76078
76100
76130
76121
76148
76144
76134
76131
76132
76150
76134
76152
76157
76164
76162
76179
76191
76195
76199
76181
76115
76090
76077
76051
76033
76050
76035
76062
76072
76072
76090
76119
76107
76146
76126
76125
76134
76150
76124
76154
76160
76167
76158
76166
76175
76174
76151
76177
76187
76173
76117
76045
76031
76017
76016
76004
76016
76022
76028
76025
76027
76067
76081
76063
76090
76100
76089
76082
76069
76084
76098
76109
76116
76123
76139
76131
76135
76156
76142
76136
76101
76053
76011
76002
76009
76019
76027
76038
76049
76057
76074
76101
76096
76117
76105
76114
76109
76115
76100
76117
76125
76139
76134
76140
76146
76161
76151
76147
76168
76122
76075
76052
76011
76015
76034
76028
76054
76057
76072
76099
76127
76121
76144
76131
76128
76119
76125
76130
76164
76166
76176
76179
76188
76172
76206
76197
76165
76123
76073
76072
76043
76061
76046
76060
76075
76093
76095
76111
76129
76127
76156
76149
76151
76141
76155
76150
76158
76172
76164
76178
76178
76177
76190
76204
76184
76151
76095
76063
76049
76043
76053
76046
76049
76047
76080
76092
76125
76128
76128
76133
76131
76148
76133
76151
76147
76137
76163
76180
76154
76159
76184
76196
76196
76191
76167
76108
76053
76049
76045
76049
76041
76052
76066
76080
76109
76124
76131
76144
76127
76125
76136
76129
76158
76160
76154
76157
76144
76155
76168
76179
76190
76189
76189
76174
76105
76068
76049
76044
76051
76059
76039
76073
76080
76103
76107
76120
76125
76108
76133
76123
76146
76146
76143
76145
76162
76180
76173
76178
76185
76192
76196
76178
76149
76093
76056
76041
76043
76043
76076
76066
76091
76113
76119
76152
76143
76176
76160
76169
76182
76169
76165
76176
76176
76189
76208
76187
76201
76193
76209
76179
76121
76087
76067
76045
76040
76057
76067
76091
76092
76102
76142
76128
76123
76154
76151
76153
76134
76144
76164
76155
76178
76175
76166
76194
76206
76194
76207
76202
76138
76076
76068
76046
76058
76038
76053
76081
76064
76099
76107
76124
76125
76149
76147
76144
76139
76151
76126
76167
76157
76179
76160
76193
76174
76188
76189
76214
76222
76222
76201
76130
76068
76079
76069
76048
76073
76088
76090
76114
76114
76108
76120
76144
76120
76145
76100
76124
76136
76119
76120
76104
76132
76107
76116
76122
76114
76126
76150
76126
76061
76036
76015
75980
75988
75988
76009
76004
76028
76039
76061
76045
76066
76052
76065
76083
76062
76044
76075
76084
76081
76094
76097
76110
76098
76139
76141
76135
76112
76057
76037
75997
75993
76016
76036
76035
76038
76052
76065
76080
76106
76125
76115
76116
76119
76118
76122
76118
76129
76132
76143
76146
76146
76163
76146
76114
76052
76023
75977
76002
75983
75996
76013
76021
76029
76044
76067
76065
76082
76091
76077
76070
76081
76075
76122
76111
76106
76098
76111
76120
76129
76089
76055
76001
75981
75975
75963
75959
75971
75974
75972
75991
75997
76015
76005
76024
76027
76041
76031
76025
76028
76033
76014
76036
76015
76035
76036
76035
76041
76043
76001
75938
75897
75859
75866
75860
75861
75865
75883
75881
75900
75904
75927
75910
75928
75903
75891
75911
75902
75883
75895
75893
75900
75910
75905
75896
75903
75918
75920
75878
75821
75782
75768
75744
75774
75784
75781
75776
75799
75815
75849
75840
75848
75839
75830
75836
75844
75843
75857
75866
75878
75866
75886
75888
75908
75918
75915
75939
75910
75884
75844
75841
75828
75855
75868
75881
75889
75928
75917
75922
75942
75947
75949
75937
75942
75952
75958
75948
75977
75996
76003
75988
76003
76028
76025
76026
75999
75952
75913
75899
75908
75906
75911
75916
75933
75935
75957
75951
75974
75981
75996
75986
75973
75981
75980
75992
76017
76029
76029
76033
76038
76068
76066
76050
76074
76087
76060
76031
75979
75954
75955
75952
75954
75977
75978
75977
75991
75993
76015
76028
76046
76026
76028
76020
76006
76003
76024
76018
76046
76039
76032
76041
76052
76040
76052
76049
76052
76057
76072
76053
76001
75964
75924
75912
75931
75940
75924
75946
75952
75961
75969
75983
75965
75987
75977
75978
75965
75978
75976
75996
75967
75992
75996
76008
75987
76012
76042
76033
76040
76028
76068
76030
75996
75942
75935
75938
75953
75960
75969
75968
75994
76008
76020
76046
76055
76056
76054
76069
76073
76095
76101
76117
76128
76142
76136
76167
76167
76168
76198
76197
76176
76150
76114
76077
76088
76101
76105
76116
76131
76119
76134
76152
76167
76173
76176
76186
76174
76187
76176
76195
76202
76211
76234
76224
76245
76259
76264
76283
76281
76262
76248
76189
76167
76182
76180
76179
76193
76201
76206
76206
76226
76234
76242
76243
76221
76241
76247
76246
76235
76253
76249
76256
76250
76259
76249
76276
76267
76256
76256
76261
76223
76169
76147
76129
76144
76151
76113
76134
76114
76144
76141
76152
76168
76161
76163
76160
76165
76169
76167
76153
76166
76162
76192
76198
76198
76205
76204
76230
76229
76223
76193
76147
76108
76087
76094
76092
76087
76116
76117
76119
76126
76138
76146
76167
76161
76174
76142
76170
76189
76205
76187
76201
76190
76205
76213
76205
76243
76238
76258
76223
76168
76154
76147
76148
76174
76189
76178
76198
76202
76232
76253
76250
76255
76238
76270
76250
76269
76263
76262
76277
76281
76290
76309
76295
76304
76312
76288
76248
76215
76180
76195
76192
76193
76208
76213
76223
76227
76237
76248
76257
76278
76260
76262
76277
76288
76298
76281
76271
76275
76277
76302
76291
76317
76301
76314
76276
76236
76171
76165
76149
76138
76122
76176
76146
76158
76162
76188
76202
76191
76216
76194
76214
76193
76219
76204
76217
76213
76209
76207
76245
76228
76237
76239
76229
76193
76135
76115
76109
76119
76130
76124
76143
76141
76166
76153
76159
76164
76163
76165
76176
76166
76178
76187
76187
76190
76193
76211
76199
76232
76230
76238
76238
76212
76164
76119
76126
76107
76129
76137
76149
76150
76156
76148
76157
76174
76181
76194
76188
76176
76187
76196
76185
76200
76213
76210
76217
76235
76211
76250
76235
76179
76142
76101
76107
76111
76100
76115
76107
76148
76139
76135
76152
76163
76168
76174
76161
76166
76173
76172
76177
76194
76178
76176
76200
76208
76212
76201
76213
76205
76184
76153
76089
76065
76072
76051
76065
76066
76076
76093
76095
76113
76100
76115
76103
76115
76084
76116
76097
76116
76119
76114
76115
76104
76103
76103
76104
76118
76122
76115
76127
76123
76097
76024
76001
76015
75995
76012
76006
76021
76000
76025
76030
76049
76035
76053
76052
76047
76049
76059
76074
76066
76084
76075
76098
76107
76109
76129
76149
76147
76152
76147
76119
76064
76063
76050
76050
76066
76057
76071
76085
76113
76100
76124
76129
76132
76129
76130
76119
76124
76154
76155
76142
76163
76152
76161
76173
76168
76195
76193
76191
76185
76120
76089
76076
76084
76074
76103
76097
76111
76109
76107
76133
76144
76153
76153
76165
76171
76164
76165
76168
76164
76184
76196
76200
76219
76195
76216
76238
76227
76241
76221
76255
76194
76183
76128
76113
76101
76136
76107
76116
76119
76111
76117
76124
76142
76150
76121
76131
76137
76116
76136
76128
76122
76165
76141
76152
76162
76165
76175
76168
76170
76187
76202
76188
76205
76203
76190
76136
76114
76103
76103
76101
76123
76110
76122
76124
76115
76141
76174
76170
76191
76162
76173
76178
76157
76183
76179
76185
76213
76190
76194
76181
76189
76215
76227
76230
76256
76234
76191
76163
76163
76152
76162
76162
76161
76170
76170
76195
76216
76217
76228
76244
76212
76224
76237
76256
76233
76247
76249
76262
76278
76274
76297
76283
76302
76311
76310
76290
76238
76216
76187
76229
76197
76217
76234
76219
76236
76235
76242
76264
76260
76262
76245
76249
76251
76266
76274
76293
76289
76292
76313
76313
76309
76308
76316
76317
76335
76333
76348
76323
76286
76251
76240
76223
76236
76233
76238
76251
76231
76255
76277
76266
76291
76281
76283
76272
76284
76300
76287
76309
76317
76296
76306
76320
76328
76345
76347
76365
76362
76359
76364
76372
76383
76355
76297
76274
76232
76221
76244
76223
76233
76260
76260
76271
76265
76270
76284
76295
76283
76272
76280
76276
76280
76277
76295
76280
76311
76316
76315
76341
76318
76326
76345
76334
76340
76359
76332
76288
76265
76251
76253
76254
76272
76278
76285
76282
76297
76310
76320
76336
76339
76330
76333
76318
76349
76344
76350
76371
76379
76371
76395
76397
76418
76409
76404
76414
76387
76371
76334
76329
76334
76334
76333
76353
76370
76367
76375
76384
76411
76415
76414
76413
76403
76413
76429
76429
76420
76448
76449
76438
76446
76452
76471
76467
76472
76438
76396
76400
76369
76365
76386
76395
76393
76399
76398
76432
76411
76431
76447
76434
76446
76448
76442
76440
76466
76451
76455
76453
76487
76482
76486
76476
76503
76486
76460
76428
76390
76369
76379
76382
76386
76379
76390
76401
76402
76403
76415
76436
76443
76451
76447
76440
76455
76447
76434
76436
76429
76424
76429
76420
76429
76440
76434
76435
76470
76451
76417
76375
76330
76322
76301
76303
76309
76326
76332
76317
76320
76330
76346
76348
76355
76332
76335
76341
76337
76332
76335
76342
76356
76348
76332
76349
76353
76348
76353
76347
76358
76381
76353
76333
76268
76251
76221
76239
76235
76267
76299
76318
76320
76367
76400
76418
76423
76423
76434
76426
76450
76438
76463
76416
76414
76373
76326
76308
76277
76283
76259
76220
76168
76101
75999
75961
75873
75767
75639
75570
75531
75489
75414
75401
75322
75315
75263
75254
75221
75209
75199
75156
75134
75107
75072
75017
74937
74813
74739
74679
74674
74645
74628
74711
74699
74738
74772
74803
74842
74866
74879
74906
74931
74925
74898
74882
74784
74763
74617
74503
74537
74593
74615
74631
74597
74507
74422
74374
74361
74306
74162
74000
73790
73440
73274
73030
72804
72493
72285
72117
71875
72079
72264
72395
72570
72694
72887
73060
73235
73335
73392
73423
73498
73571
73614
73674
73746
73820
73857
73867
73814
73812
73835
73859
73872
73884
73916
73948
73970
73994
74027
74021
74025
74027
74016
74030
74034
74023
74016
74046
74064
74082
74107
74099
74067
73981
73950
73936
73934
73930
73932
73902
73893
73896
73894
73904
73922
73917
73895
73886
73883
73921
73879
73867
73901
73894
73886
73873
73901
73912
73855
73824
73758
73728
73717
73743
73780
73816
73846
73874
73907
73944
73966
73995
74024
74050
74093
74153
74129
74040
74024
74077
74117
74120
74170
74182
74147
74123
74092
74096
74106
74132
74154
74176
74187
74185
74212
74177
74178
74174
74163
74188
74178
74231
74289
74317
74326
74349
74384
74400
74447
74435
74400
74377
74357
74377
74423
74453
74464
74539
74541
74571
74599
74649
74645
74663
74665
74678
74701
74691
74698
74685
74716
74693
74793
74856
74844
74808
74749
74736
74742
74747
74762
74815
74838
74907
74956
74995
75025
75038
75061
75061
75075
75084
75070
75119
75121
75147
75155
75137
75177
75051
74947
74834
74846
74773
74764
74730
74766
74822
74837
74845
74859
74880
74884
74898
74892
74921
74914
74915
74950
74987
75026
75063
75091
75101
75052
75052
75038
75024
75046
75059
75108
75144
75190
75222
75264
75310
75347
75390
75413
75424
75449
75460
75498
75508
75529
75527
75542
75564
75545
75510
75484
75480
75470
75434
75432
75460
75491
75501
75514
75561
75565
75578
75602
75633
75659
75647
75677
75698
75720
75765
75797
75802
75829
75776
75765
75724
75735
75723
75742
75783
75765
75769
75807
75797
75793
75803
75793
75801
75797
75770
75765
75785
75786
75795
75825
75794
75807
75772
75667
75603
75574
75563
75623
75663
75756
75807
75892
75914
75888
75859
75830
75759
75630
75471
75383
75316
75292
75282
75156
75149
75129
75108
75171
75401
75571
75865
76106
76316
76426
76505
76582
76571
76595
76655
76677
76682
76646
76531
76214
75620
75086
74827
74852
74939
75065
75077
75057
75173
75238
75292
75369
75430
75399
75363
75360
75385
75450
75494
75545
75563
75639
75657
75668
75686
75700
75731
75758
75754
75739
75701
75671
75670
75680
75698
75726
75763
75820
75847
75886
75926
75930
75974
75949
75978
75989
75998
76014
76029
76025
76036
75971
75922
75822
75804
75829
75899
76023
76141
76369
76423
76560
76783
76797
76937
77259
77462
77502
77811
77456
76819
76266
75975
75796
75685
75546
75479
75447
75438
75452
75493
75522
75590
75628
75661
75696
75704
75733
75728
75705
75693
75708
75723
75745
75777
75743
75636
75334
75172
75315
75381
75391
75322
75329
75310
75321
75358
75420
75430
75429
75454
75484
75517
75547
75540
75553
75580
75612
75602
75585
75535
75506
75467
75456
75462
75486
75492
75518
75560
75575
75623
75603
75616
75572
75552
75542
75536
75511
75496
75513
75511
75501
75467
75395
75381
75380
75386
75414
75423
75433
75456
75487
75542
75566
75567
75595
75602
75586
75591
75625
75652
75675
75682
75694
75683
75653
75631
75659
75649
75671
75684
75722
75755
75785
75796
75816
75808
75836
75838
75818
75818
75836
75836
75848
75833
75840
75783
75739
75749
75742
75750
75771
75774
75799
75827
75828
75858
75842
75830
75833
75848
75846
75864
75864
75889
75879
75844
75813
75785
75756
75763
75784
75791
75800
75848
75861
75886
75902
75904
75902
75904
75901
75896
75921
75938
75932
75926
75900
75862
75836
75808
75799
75819
75823
75840
75881
75917
75909
75945
75957
75957
75956
75959
75968
75964
75984
75984
76004
75992
75935
75890
75886
75881
75878
75888
75903
75936
75947
75970
75989
75996
75998
76003
75997
75995
76011
76018
76018
76010
76010
75962
75923
75877
75850
75829
75851
75881
75897
75898
75929
75940
75942
75932
75936
75922
75893
75868
75882
75907
75880
75903
75876
75820
75782
75752
75741
75732
75749
75775
75797
75802
75833
75862
75873
75857
75841
75857
75881
75892
75904
75902
75922
75893
75834
75797
75782
75765
75787
75772
75789
75823
75828
75835
75839
75835
75825
75831
75830
75840
75828
75855
75856
75833
75808
75746
75690
75672
75680
75676
75686
75708
75720
75700
75725
75731
75730
75720
75708
75704
75718
75719
75738
75746
75762
75775
75739
75708
75661
75664
75659
75690
75708
75737
75744
75770
75783
75780
75779
75767
75789
75781
75777
75787
75782
75791
75803
75812
75790
75770
75718
75681
75675
75671
75694
75741
75731
75769
75791
75806
75791
75792
75800
75778
75786
75778
75781
75803
75808
75826
75808
75816
75760
75712
75690
75691
75711
75701
75750
75759
75765
75776
75773
75768
75751
75729
75718
75706
75690
75672
75654
75651
75669
75644
75575
75536
75516
75534
75509
75536
75555
75592
75597
75624
75632
75637
75658
75644
75660
75643
75691
75685
75683
75693
75705
75713
75726
75656
75609
75599
75567
75568
75612
75627
75624
75638
75656
75674
75663
75682
75673
75665
75676
75681
75686
75681
75684
75707
75732
75765
75784
75814
75805
75773
75760
75786
75830
75836
75845
75859
75869
75885
75903
75899
75895
75868
75892
75887
75899
75891
75904
75873
75903
75931
75944
75972
75970
75981
75984
76005
75975
75921
26152
26160
26192
26217
26211
26211
26212
26251
26254
26240
75946
75939
75926
75949
75942
75935
75963
75961
75979
75992
76001
76021
76029
76044
76058
76037
76084
76028
75967
75934
75934
75942
75967
75992
75992
76013
76040
76079
76086
76069
76068