-172,-317,-115
-8895,-30501,-117
-10477,-30943,4130
-464,15112,19839
-517,22149,16971
-162,104,-307
-171,109,-306
-179,107,-307
-183,105,-309
-185,102,-308
-183,98,-304
-178,94,-311
-171,88,-312
-161,84,-310
-152,82,-311
-140,84,-311
-130,82,-312
-118,80,-309
-112,82,-310
-104,86,-309
-97,84,-304
-91,89,-302
-88,93,-299
-83,93,-297
-85,98,-290
-86,99,-294
-87,100,-285
-91,98,-282
-90,97,-278
-88,95,-275
-81,92,-276
-73,91,-275
-65,88,-276
-57,87,-275
-53,84,-277
-44,83,-275
-41,77,-273
-39,77,-272
-40,73,-268
-45,72,-266
-51,67,-260
-56,63,-254
-64,58,-247
-70,53,-245
-72,45,-240
-75,37,-237
-76,33,-229
-76,28,-227
-80,23,-223
-82,19,-218
-82,14,-213
-82,9,-211
-77,11,-211
-72,6,-211
-70,4,-203
-67,4,-202
-61,1,-200
-55,5,-200
-53,5,-202
-50,6,-196
-49,8,-195
-43,10,-197
-40,7,-197
-39,9,-199
-33,9,-200
-32,9,-199
-29,7,-201
-30,4,-202
-31,2,-202
-36,-6,-203
-38,-14,-198
-46,-25,-197
-51,-35,-194
-55,-52,-189
-58,-63,-185
-58,-75,-183
-52,-81,-180
-45,-92,-174
-36,-98,-169
-21,-103,-166
-7,-106,-156
6,-110,-156
18,-110,-149
29,-110,-143
38,-109,-139
41,-110,-128
44,-106,-115
41,-111,-108
35,-112,-101
30,-113,-91
21,-115,-86
14,-121,-76
9,-120,-74
0,-127,-68
-9,-134,-62
-22,-138,-57
-34,-145,-50
-50,-152,-43
-61,-160,-39
-75,-161,-31
-85,-161,-26
-95,-154,-21
-103,-149,-13
-112,-140,-10
-122,-133,-4
-128,-128,-1
-134,-123,7
-138,-123,17
-140,-117,20
-141,-121,32
-135,-117,39
-135,-118,48
-125,-118,59
-109,-120,69
-95,-115,83
-81,-109,98
-65,-110,122
-54,-107,140
-38,-109,162
-28,-111,182
-24,-120,211
-30,-132,236
-42,-143,266
-56,-171,294
-82,-199,313
-111,-235,331
-141,-277,346
-177,-325,358
-215,-363,365
-257,-407,369
-291,-455,367
-334,-509,364
-369,-563,363
-399,-624,357
-423,-686,347
-444,-751,336
-456,-814,324
-466,-881,307
-474,-954,282
-473,-1033,258
-471,-1114,229
-468,-1196,204
-460,-1279,173
-452,-1367,145
-448,-1450,110
-444,-1534,77
-437,-1618,46
-438,-1687,16
-439,-1751,-14
-444,-1802,-44
-446,-1841,-80
-459,-1872,-109
-474,-1901,-134
-498,-1905,-157
-529,-1910,-172
-564,-1903,-180
-600,-1883,-186
-649,-1853,-184
-695,-1814,-185
-744,-1777,-186
-793,-1721,-188
-832,-1668,-184
-865,-1622,-186
-896,-1572,-190
-914,-1535,-193
-922,-1493,-201
-912,-1472,-209
-889,-1459,-219
-848,-1462,-229
-802,-1480,-233
-744,-1498,-233
-680,-1509,-223
-618,-1510,-216
-550,-1508,-199
-491,-1492,-178
-427,-1469,-148
-373,-1442,-118
-324,-1407,-77
-282,-1368,-38
-247,-1326,0
-218,-1281,40
-195,-1231,76
-177,-1181,106
-157,-1119,134
-137,-1068,158
-123,-1011,178
-107,-958,198
-93,-900,215
-77,-857,230
-60,-812,244
-38,-774,254
-13,-716,264
16,-686,271
45,-664,276
76,-653,279
106,-644,284
133,-662,293
157,-677,300
175,-683,309
185,-683,322
189,-678,332
190,-659,344
189,-629,364
178,-604,371
172,-568,389
161,-521,407
155,-483,419
146,-433,436
144,-391,448
137,-346,460
145,-302,474
149,-259,487
161,-217,500
176,-173,513
184,-134,527
196,-100,544
202,-79,554
208,-67,562
206,-61,568
208,-59,576
202,-62,578
195,-63,582
184,-64,583
189,-64,582
193,-69,579
203,-65,574
212,-67,571
222,-63,570
234,-59,570
244,-51,571
253,-43,571
259,-35,575
266,-24,578
268,-13,580
272,-3,579
278,7,582
285,20,580
293,28,576
299,34,569
315,35,558
334,36,537
354,30,522
379,25,504
393,21,483
403,18,467
411,14,455
414,19,442
415,21,434
408,26,427
402,37,424
393,43,424
382,53,426
369,69,430
364,85,432
352,104,438
346,126,445
334,148,449
330,165,454
327,189,456
324,206,463
326,221,462
326,234,460
324,246,459
331,262,457
336,266,455
336,273,448
336,279,448
334,279,450
334,282,443
331,282,448
325,281,448
316,273,448
313,270,455
302,259,459
296,255,463
286,248,469
270,244,473
256,243,476
233,239,482
217,243,479
198,247,477
177,247,474
158,250,468
145,252,465
130,254,452
120,253,443
110,257,433
100,250,423
98,249,413
94,245,404
88,242,394
85,243,388
78,242,380
66,234,372
54,230,366
42,221,354
28,215,346
10,205,338
-10,202,333
-29,192,325
-50,190,318
-67,186,309
-86,179,303
-103,177,289
-119,172,279
-135,162,269
-146,162,254
-160,153,245
-170,150,234
-185,155,218
-194,151,209
-207,150,201
-218,146,192
-232,141,187
-244,139,181
-259,130,177
-267,122,175
-283,123,173
-293,106,171
-303,100,171
-316,100,171
-327,93,173
-343,102,176
-354,106,179
-365,115,184
-372,128,185
-378,138,189
-380,151,192
-382,167,198
-382,176,203
-382,187,208
-379,196,213
-381,203,216
-382,205,222
-379,212,227
-375,213,229
-375,217,229
-372,220,234
-366,219,234
-365,223,232
-358,220,236
-356,219,234
-348,223,232
-335,225,232
-323,230,230
-312,235,228
-297,240,229
-279,243,226
-264,252,222
-250,253,222
-239,259,218
-225,261,218
-215,259,218
-208,258,217
-201,256,217
-193,251,219
-191,246,218
-186,243,222
-185,240,222
-181,231,225
-177,234,227
-172,232,228
-167,229,226
-162,226,223
-159,232,222
-154,227,224
-149,226,220
-142,222,220
-140,218,218
-138,217,213
-134,212,211
-132,207,205
-130,201,201
-126,192,194
-117,176,189
-110,160,179
-104,143,174
-96,130,166
-90,116,158
-87,104,151
-84,93,141
-82,82,133
-80,71,122
-78,58,119
-82,52,107
-82,47,101
-83,41,93
-84,34,87
-86,27,80
-83,19,71
-82,10,69
-79,5,63
-77,-6,59
-74,-8,55
-75,-16,48
-73,-22,46
-68,-34,45
-66,-42,43
-66,-46,42
-65,-48,36
-64,-51,34
-63,-50,31
-61,-50,29
-57,-48,25
-53,-47,20
-48,-42,16
-45,-38,12
-39,-34,7
-35,-31,1
-30,-31,-1
-25,-32,-2
-24,-34,-7
-26,-38,-10
-24,-47,-12
-23,-52,-14
-25,-61,-13
-25,-64,-15
-30,-68,-17
-26,-71,-16
-26,-73,-18
-25,-73,-21
-18,-76,-24
-14,-76,-31
-4,-76,-37
7,-81,-43
17,-82,-51
33,-89,-65
47,-93,-72
56,-99,-84
66,-105,-93
74,-113,-102
79,-122,-105
81,-130,-113
81,-134,-116
77,-136,-119
74,-136,-118
67,-135,-116
60,-135,-107
49,-131,-110
41,-128,-104
33,-123,-99
24,-122,-93
18,-117,-90
12,-115,-83
10,-115,-77
9,-115,-77
10,-114,-75
17,-116,-72
24,-115,-67
38,-120,-70
51,-124,-74
66,-131,-77
81,-142,-76
96,-147,-77
107,-151,-73
116,-154,-65
122,-151,-59
127,-145,-51
131,-133,-46
131,-125,-41
132,-111,-32
132,-96,-26
133,-81,-22
127,-66,-16
125,-48,-13
121,-34,-12
114,-21,-11
115,-11,-12
111,1,-18
109,8,-16
110,20,-20
104,32,-22
102,38,-25
99,42,-27
95,45,-24
91,50,-29
82,49,-26
76,49,-27
68,50,-31
59,48,-29
54,44,-31
52,39,-33
46,35,-36
42,31,-40
43,24,-40
42,21,-42
40,15,-45
40,13,-45
44,10,-44
45,8,-41
45,0,-38
45,-6,-29
42,-7,-24
40,-16,-20
42,-20,-14
38,-27,-7
41,-30,-1
43,-29,1
45,-32,4
46,-35,9
48,-39,11
51,-40,13
54,-42,13
56,-37,17
57,-34,15
59,-30,14
64,-29,12
63,-22,11
66,-18,12
63,-16,10
65,-10,11
61,-14,11
54,-13,6
50,-12,3
44,-15,1
37,-20,-2
32,-24,-4
23,-27,-8
21,-30,-12
17,-35,-22
15,-39,-23
10,-44,-30
9,-46,-33
4,-50,-35
-2,-52,-37
-10,-52,-36
-16,-54,-36
-27,-56,-33
-38,-57,-35
-43,-58,-34
-45,-65,-35
-42,-74,-40
-40,-81,-42
-37,-91,-44
-35,-101,-48
-33,-108,-44
-30,-111,-44
-30,-116,-46
-29,-116,-47
-30,-117,-42
-31,-120,-40
-29,-119,-37
-32,-113,-35
-29,-107,-32
-30,-98,-29
-25,-88,-30
-17,-80,-31
-12,-70,-32
-3,-63,-31
5,-58,-31
17,-57,-28
26,-64,-23
36,-72,-23
40,-86,-20
47,-106,-15
52,-126,-9
58,-143,-4
59,-161,1
50,-171,9
45,-176,18
32,-173,26
18,-164,31
5,-152,38
-3,-134,39
-5,-114,41
-9,-92,39
-8,-66,36
-6,-41,26
0,-18,20
10,0,11
21,16,0
35,22,-9
50,21,-20
57,18,-30
65,7,-33
71,-6,-41
75,-25,-44
74,-42,-43
73,-63,-48
66,-83,-41
58,-102,-40
46,-118,-39
38,-128,-36
33,-136,-31
24,-143,-30
15,-142,-24
8,-145,-25
5,-137,-20
0,-132,-19
0,-122,-20
0,-110,-17
0,-104,-19
3,-89,-23
10,-81,-27
19,-70,-28
29,-59,-28
38,-49,-30
51,-39,-31
64,-28,-31
77,-18,-31
91,-10,-30
103,-2,-30
114,6,-25
117,16,-21
122,27,-16
128,33,-9
129,42,-5
125,46,2
124,50,6
123,49,4
126,44,6
128,35,6
132,26,7
132,23,6
133,12,6
130,4,2
127,-2,4
115,-8,-1
109,-17,0
99,-22,0
89,-25,0
79,-30,0
71,-36,-4
63,-41,-4
55,-44,-5
46,-44,-11
40,-50,-14
36,-51,-19
37,-54,-17
34,-55,-18
32,-60,-22
27,-64,-19
22,-64,-17
16,-66,-18
13,-66,-16
8,-67,-15
2,-70,-13
-1,-69,-14
-7,-68,-15
-11,-66,-14
-8,-67,-15
-6,-67,-18
-6,-67,-19
-3,-65,-20
-1,-66,-22
0,-65,-18
3,-63,-21
4,-59,-22
6,-57,-21
6,-54,-17
6,-48,-15
7,-50,-11
9,-43,-9
9,-43,-7
6,-44,-6
4,-38,-7
6,-37,-4
1,-35,-6
-2,-35,-6
0,-35,-6
-1,-33,-11
0,-31,-12
-2,-29,-17
0,-30,-20
2,-34,-26
4,-32,-25
6,-32,-28
13,-33,-28
20,-35,-24
28,-37,-21
36,-34,-15
46,-32,-14
60,-28,-13
72,-28,-13
90,-26,-15
100,-33,-23
112,-39,-32
120,-47,-42
127,-61,-50
134,-79,-55
133,-94,-61
124,-110,-64
110,-122,-63
89,-130,-61
65,-138,-53
35,-140,-46
4,-143,-40
-24,-143,-31
-46,-139,-28
-60,-133,-26
-67,-120,-26
-67,-106,-29
-64,-88,-28
-56,-72,-32
-44,-57,-35
-37,-50,-33
-23,-49,-30
-12,-50,-27
-3,-53,-18
12,-63,-11
25,-70,-7
34,-82,-4
48,-89,1
61,-93,4
77,-91,3
92,-88,3
103,-74,3
117,-59,6
122,-41,6
125,-16,6
128,9,12
130,37,14
129,65,14
132,100,18
139,136,20
147,178,24
154,218,22
166,262,25
181,305,25
195,347,27
215,386,28
232,424,29
247,455,31
264,484,36
273,513,41
286,532,44
295,555,47
305,575,54
316,594,57
330,613,57
342,629,59
356,641,67
369,661,64
386,677,65
401,688,64
417,697,58
432,704,49
440,710,37
447,719,23
451,731,16
451,741,4
446,761,-6
442,776,-12
435,783,-17
427,783,-24
422,786,-24
407,789,-26
397,791,-25
388,799,-24
380,802,-20
370,804,-23
361,810,-23
360,811,-30
359,814,-37
358,810,-46
359,808,-54
363,807,-62
363,803,-70
372,788,-77
368,772,-84
361,762,-88
350,744,-89
337,732,-89
325,723,-86
307,709,-87
293,709,-85
284,708,-84
273,708,-89
274,710,-92
269,712,-93
267,722,-91
265,732,-91
265,733,-85
268,736,-81
270,744,-78
276,744,-73
280,745,-69
289,739,-60
288,734,-51
293,727,-37
299,720,-22
306,717,-6
308,715,6
313,709,24
318,703,43
324,702,59
324,698,76
332,697,90
334,693,101
335,689,111
337,687,121
337,681,129
337,671,134
341,665,142
341,642,147
338,650,152
335,665,160
335,670,169
334,661,173
336,650,182
336,632,188
335,620,199
339,604,201
342,592,212
341,574,216
341,564,217
341,549,215
337,543,211
333,533,214
325,520,216
318,498,211
312,475,214
306,451,212
297,430,207
292,403,208
283,383,208
274,360,206
267,346,207
258,340,204
248,334,202
242,330,199
236,330,198
228,330,196
221,327,189
213,324,184
213,322,179
207,315,172
202,308,167
198,299,160
197,291,154
196,278,149
193,268,137
194,255,129
194,244,122
193,235,114
193,230,108
196,226,96
199,220,88
201,219,84
199,216,80
194,215,71
192,208,66
190,205,59
182,203,54
178,199,44
174,198,39
167,194,28
162,193,22
158,185,18
152,182,12
149,177,10
143,169,9
139,159,6
137,149,7
138,138,8
136,133,4
141,136,2
143,143,0
143,155,-5
148,167,-5
150,170,-9
151,175,-9
152,181,-6
152,183,-5
157,177,-1
160,175,2
170,168,12
180,161,15
195,147,23
217,137,31
244,133,37
273,127,46
297,128,55
325,138,67
349,148,73
381,164,88
409,176,84
435,191,90
463,199,88
486,200,95
499,195,97
512,183,101
515,165,106
516,152,113
510,136,117
508,118,121
500,99,121
491,79,122
484,65,116
473,53,107
458,31,102
441,8,95
420,-9,86
397,-26,77
373,-39,67
347,-46,54
320,-53,42
296,-56,32
269,-53,23
246,-52,12
226,-49,3
205,-47,-3
189,-47,-12
173,-48,-18
156,-46,-20
145,-40,-27
134,-38,-35
128,-26,-39
121,-19,-45
117,-6,-51
122,7,-57
123,24,-61
128,42,-69
134,60,-74
137,82,-75
142,104,-75
147,119,-71
145,136,-66
137,144,-56
128,152,-47
115,149,-31
97,147,-20
75,142,-2
49,134,14
35,121,32
16,115,45
7,108,53
-5,106,61
-17,109,69
-35,112,80
-54,118,87
-73,119,97
-99,120,99
-120,114,104
-142,111,107
-168,104,106
-194,96,107
-214,86,104
-236,73,99
-259,68,97
-275,57,87
-290,57,74
-297,66,63
-298,79,43
-300,97,25
-299,118,7
-299,141,-14
-288,166,-33
-275,193,-53
-262,227,-76
-243,260,-98
-230,292,-115
-214,322,-134
-202,345,-153
-186,365,-170
-179,383,-183
-172,394,-190
-163,400,-196
-164,403,-201
-161,402,-202
-157,397,-204
-157,394,-210
-153,395,-209
-156,403,-215
-154,415,-222
-157,431,-224
-163,453,-229
-168,481,-237
-169,501,-240
-176,523,-245
-179,540,-250
-186,552,-250
-193,556,-253
-199,555,-257
-205,542,-254
-213,515,-249
-221,484,-241
-223,443,-230
-230,400,-215
-235,345,-200
-231,279,-184
-228,209,-167
-223,143,-152
-212,78,-137
-209,34,-124
-202,-13,-111
-210,-32,-102
-215,-42,-91
-222,-38,-87
-235,-28,-81
-251,-11,-75
-276,4,-65
-301,19,-56
-329,30,-52
-363,43,-44
-402,47,-39
-445,49,-30
-494,48,-21
-549,35,-13
-610,28,-9
-666,37,-15
-718,63,-24
-762,100,-45
-800,137,-71
-828,173,-102
-858,206,-133
-884,231,-171
-910,258,-205
-939,275,-245
-967,290,-286
-999,299,-326
-1030,300,-365
-1068,300,-407
-1109,291,-451
-1158,281,-493
-1211,268,-535
-1272,247,-581
-1343,228,-620
-1414,207,-665
-1485,187,-706
-1560,171,-748
-1632,152,-783
-1711,133,-816
-1780,111,-848
-1855,93,-879
-1924,78,-902
-1984,65,-920
-2038,53,-940
-2082,41,-954
-2114,32,-962
-2131,21,-972
-2133,9,-977
-2123,2,-974
-2100,-2,-974
-2072,-6,-975
-2038,-10,-968
-1998,-14,-965
-1954,-13,-959
-1905,-18,-951
-1852,-15,-945
-1800,-14,-937
-1752,-11,-930
-1708,-7,-923
-1667,-1,-913
-1631,4,-908
-1597,16,-900
-1565,28,-894
-1538,34,-888
-1519,44,-883
-1502,54,-876
-1491,64,-873
-1479,73,-869
-1470,77,-869
-1464,88,-867
-1464,97,-866
-1466,105,-868
-1473,110,-871
-1486,119,-878
-1501,128,-885
-1523,137,-896
-1551,148,-904
-1573,158,-919
-1607,173,-939
-1641,188,-961
-1674,202,-987
-1714,217,-1016
-1760,230,-1050
-1817,245,-1089
-1880,258,-1131
-1954,269,-1179
-2038,272,-1234
-2125,277,-1292
-2222,282,-1352
-2327,288,-1419
-2438,292,-1492
-2559,297,-1568
-2679,296,-1643
-2811,294,-1727
-2951,294,-1811
-3097,294,-1894
-3251,294,-1985
-3410,301,-2080
-3573,308,-2171
-3734,311,-2262
-3892,313,-2348
-4045,312,-2431
-4184,309,-2508
-4320,303,-2585
-4446,297,-2658
-4562,293,-2725
-4672,294,-2790
-4768,286,-2845
-4856,284,-2892
-4938,280,-2936
-5017,272,-2971
-5093,260,-3000
-5165,245,-3025
-5227,230,-3048
-5281,205,-3063
-5324,182,-3083
-5355,161,-3098
-5370,135,-3106
-5373,109,-3114
-5357,79,-3122
-5328,50,-3132
-5284,12,-3138
-5226,-21,-3141
-5164,-54,-3145
-5093,-87,-3142
-5012,-115,-3137
-4933,-140,-3126
-4848,-164,-3109
-4763,-177,-3088
-4674,-191,-3059
-4592,-197,-3027
-4515,-196,-2994
-4436,-197,-2958
-4364,-193,-2913
-4292,-189,-2872
-4221,-192,-2823
-4156,-186,-2774
-4095,-186,-2721
-4036,-186,-2668
-3978,-180,-2619
-3924,-182,-2566
-3868,-181,-2514
-3812,-185,-2463
-3755,-191,-2411
-3699,-197,-2363
-3641,-209,-2315
-3588,-227,-2267
-3535,-245,-2216
-3491,-268,-2173
-3446,-289,-2124
-3408,-316,-2073
-3378,-341,-2033
-3353,-368,-1985
-3335,-394,-1939
-3321,-421,-1893
-3316,-445,-1851
-3318,-467,-1809
-3327,-488,-1774
-3345,-503,-1738
-3372,-517,-1716
-3400,-523,-1695
-3426,-535,-1680
-3444,-541,-1664
-3459,-543,-1655
-3465,-553,-1650
-3472,-556,-1648
-3469,-560,-1647
-3459,-560,-1645
-3446,-567,-1644
-3435,-575,-1647
-3418,-583,-1649
-3408,-589,-1650
-3393,-597,-1649
-3382,-605,-1653
-3371,-610,-1649
-3361,-614,-1643
-3349,-614,-1633
-3342,-614,-1630
-3330,-610,-1623
-3318,-607,-1618
-3301,-600,-1609
-3285,-591,-1601
-3264,-585,-1591
-3243,-579,-1577
-3227,-569,-1564
-3210,-559,-1554
-3191,-551,-1541
-3177,-542,-1529
-3170,-538,-1513
-3166,-530,-1499
-3163,-525,-1483
-3161,-523,-1470
-3155,-520,-1456
-3144,-518,-1450
-3131,-514,-1442
-3121,-512,-1435
-3105,-507,-1435
-3093,-506,-1433
-3083,-502,-1433
-3082,-499,-1430
-3079,-495,-1424
-3080,-490,-1425
-3080,-478,-1429
-3074,-470,-1430
-3070,-457,-1438
-3058,-443,-1444
-3049,-437,-1454
-3044,-437,-1462
-3041,-431,-1468
-3040,-441,-1474
-3043,-456,-1481
-3047,-475,-1488
-3050,-505,-1503
-3048,-536,-1518
-3037,-577,-1538
-3018,-622,-1558
-2982,-671,-1582
-2929,-720,-1607
-2864,-763,-1633
-2800,-795,-1654
-2739,-816,-1659
-2697,-809,-1661
-2663,-795,-1650
-2648,-757,-1627
-2649,-712,-1596
-2659,-657,-1564
-2676,-597,-1530
-2697,-533,-1495
-2718,-471,-1468
-2732,-414,-1440
-2744,-358,-1422
-2753,-309,-1408
-2764,-268,-1403
-2768,-233,-1398
-2771,-209,-1404
-2775,-194,-1411
-2774,-182,-1424
-2773,-178,-1440
-2770,-177,-1457
-2765,-179,-1479
-2766,-178,-1502
-2763,-184,-1528
-2764,-191,-1554
-2764,-196,-1579
-2773,-197,-1606
-2787,-196,-1635
-2805,-202,-1661
-2826,-199,-1690
-2844,-194,-1720
-2856,-184,-1754
-2871,-173,-1787
-2887,-166,-1813
-2897,-158,-1849
-2903,-154,-1880
-2905,-147,-1911
-2901,-142,-1943
-2897,-136,-1976
-2888,-129,-2000
-2883,-126,-2018
-2874,-122,-2035
-2867,-123,-2044
-2856,-119,-2054
-2849,-117,-2053
-2840,-120,-2058
-2835,-125,-2050
-2828,-130,-2046
-2823,-137,-2031
-2818,-147,-2018
-2812,-158,-2007
-2802,-170,-1992
-2791,-181,-1985
-2781,-195,-1970
-2763,-210,-1957
-2745,-226,-1940
-2729,-241,-1929
-2712,-261,-1918
-2695,-272,-1906
-2677,-288,-1890
-2661,-296,-1882
-2643,-305,-1871
-2631,-310,-1860
-2614,-309,-1853
-2599,-305,-1845
-2592,-300,-1832
-2587,-297,-1827
-2583,-284,-1821
-2588,-280,-1814
-2590,-272,-1812
-2597,-261,-1814
-2605,-256,-1814
-2618,-247,-1816
-2632,-236,-1822
-2647,-231,-1823
-2662,-226,-1828
-2679,-221,-1832
-2698,-221,-1836
-2720,-221,-1841
-2742,-218,-1846
-2763,-218,-1848
-2787,-218,-1845
-2816,-218,-1847
-2842,-217,-1839
-2865,-215,-1836
-2882,-209,-1829
-2895,-195,-1823
-2909,-183,-1817
-2916,-170,-1807
-2924,-152,-1798
-2923,-129,-1786
-2922,-111,-1776
-2920,-95,-1764
-2917,-80,-1746
-2916,-71,-1729
-2917,-63,-1711
-2923,-61,-1686
-2935,-66,-1662
-2956,-79,-1631
-2980,-94,-1603
-3000,-115,-1575
-3015,-140,-1547
-3010,-166,-1533
-2979,-190,-1525
-2932,-210,-1527
-2868,-235,-1531
-2787,-246,-1541
-2693,-254,-1562
-2583,-259,-1578
-2475,-267,-1596
-2372,-268,-1609
-2277,-260,-1610
-2184,-244,-1616
-2095,-219,-1618
-2013,-179,-1622
-1933,-137,-1626
-1863,-82,-1623
-1809,-28,-1618
-1755,31,-1608
-1719,84,-1588
-1688,137,-1570
-1665,183,-1536
-1648,231,-1507
-1627,264,-1474
-1605,296,-1448
-1573,317,-1422
-1530,332,-1402
-1473,346,-1391
-1402,355,-1380
-1325,358,-1371
-1249,357,-1359
-1167,353,-1346
-1096,340,-1334
-1027,316,-1321
-969,283,-1304
-923,247,-1284
-889,205,-1262
-866,162,-1235
-861,116,-1202
-877,69,-1174
-900,18,-1135
-938,-33,-1099
-983,-84,-1063
-1031,-133,-1029
-1077,-174,-990
-1127,-212,-960
-1172,-243,-924
-1210,-268,-893
-1243,-286,-861
-1274,-304,-832
-1293,-310,-812
-1305,-319,-789
-1313,-320,-771
-1321,-320,-750
-1321,-316,-729
-1323,-312,-711
-1332,-303,-692
-1336,-300,-668
-1345,-295,-648
-1351,-292,-625
-1357,-289,-610
-1360,-291,-591
-1365,-286,-580
-1368,-291,-568
-1365,-295,-556
-1358,-297,-550
-1351,-305,-547
-1336,-308,-540
-1327,-314,-539
-1309,-318,-539
-1288,-318,-540
-1273,-322,-537
-1256,-320,-537
-1242,-321,-533
-1234,-317,-526
-1223,-314,-518
-1220,-310,-503
-1216,-306,-487
-1211,-305,-469
-1207,-297,-454
-1201,-288,-435
-1195,-278,-419
-1192,-270,-400
-1187,-263,-383
-1175,-252,-367
-1161,-243,-358
-1140,-230,-349
-1119,-215,-343
-1097,-198,-335
-1076,-186,-335
-1051,-169,-322
-1026,-158,-314
-999,-141,-308
-972,-125,-300
-946,-115,-294
-921,-102,-287
-899,-97,-277
-878,-88,-276
-857,-82,-269
-833,-76,-268
-804,-66,-271
-771,-58,-270
-737,-51,-275
-704,-43,-276
-680,-42,-269
-654,-40,-263
-635,-42,-259
-624,-46,-251
-613,-54,-240
-613,-68,-227
-616,-83,-213
-623,-99,-194
-623,-122,-180
-621,-138,-165
-609,-146,-150
-596,-147,-132
-570,-140,-118
-533,-125,-115
-482,-110,-115
-418,-101,-120
-353,-100,-121
-290,-109,-115
-241,-124,-110
-208,-159,-95
-195,-207,-72
-200,-267,-48
-211,-339,-25
-231,-415,6
-244,-487,41
-256,-553,83
-265,-613,131
-265,-664,185
-258,-694,244
-247,-719,305
-218,-725,360
-175,-723,417
-116,-711,468
-44,-684,507
38,-656,545
118,-626,573
187,-583,600
253,-543,621
309,-494,638
358,-445,652
400,-388,657
439,-337,656
470,-286,649
487,-240,643
498,-199,627
502,-163,608
498,-132,587
491,-112,558
495,-104,529
496,-111,491
507,-125,455
516,-138,412
533,-147,375
550,-156,338
563,-151,300
569,-143,269
576,-133,243
578,-123,220
574,-108,197
570,-95,185
557,-88,183
539,-86,182
523,-90,189
505,-107,204
490,-130,222
483,-160,240
475,-189,268
471,-225,297
468,-266,326
462,-306,361
459,-343,392
453,-380,422
450,-414,450
446,-445,475
442,-463,490
439,-470,505
434,-471,512
430,-464,507
422,-448,502
415,-428,488
407,-402,471
395,-373,445
385,-343,423
373,-314,393
359,-288,361
347,-269,330
336,-252,300
328,-242,263
320,-243,237
312,-246,208
306,-248,181
300,-258,157
290,-264,135
283,-268,120
277,-271,107
265,-266,92
258,-260,84
246,-251,77
231,-239,66
220,-228,64
205,-214,60
195,-201,53
179,-190,50
164,-176,51
148,-168,46
135,-161,48
122,-158,47
115,-163,45
104,-167,43
101,-177,42
95,-182,41
89,-185,40
87,-189,37
77,-187,31
74,-183,30
63,-179,25
53,-167,18
41,-150,11
26,-132,4
14,-110,-3
0,-88,-15
-8,-68,-29
-19,-54,-47
-21,-38,-57
-24,-7,-73
-40,25,-95
-56,49,-120
-69,69,-147
-77,87,-173
-74,105,-203
-61,123,-230
-53,141,-261
-33,157,-286
-14,159,-307
5,161,-321
27,156,-331
48,142,-337
62,128,-339
72,112,-328
79,92,-315
81,77,-298
74,59,-278
71,45,-260
69,30,-242
72,13,-225
75,-5,-213
83,-27,-198
90,-44,-185
106,-69,-180
126,-95,-172
144,-118,-169
166,-145,-163
187,-172,-161
208,-203,-158
229,-234,-150
245,-266,-144
250,-295,-139
255,-330,-130
251,-359,-121
243,-377,-112
225,-389,-97
195,-400,-83
159,-408,-67
124,-413,-51
83,-414,-43
45,-399,-38
15,-386,-40
-11,-372,-46
-29,-353,-55
-40,-335,-66
-47,-316,-81
-46,-296,-101
-37,-278,-118
-25,-265,-135
-14,-247,-153
-2,-235,-172
7,-220,-185
15,-205,-192
14,-185,-204
6,-155,-212
-9,-122,-214
-24,-76,-219
-49,-32,-221
-71,15,-221
-97,61,-216
-122,102,-211
-145,134,-209
-164,148,-198
-176,146,-187
-182,124,-179
-179,92,-168
-167,51,-157
-151,6,-142
-133,-43,-131
-108,-91,-121
-83,-145,-109
-55,-201,-102
-34,-250,-96
-9,-291,-89
13,-335,-89
31,-367,-90
52,-396,-93
62,-414,-103
67,-420,-113
70,-416,-123
66,-399,-141
61,-376,-158
55,-346,-183
50,-316,-208
40,-285,-235
30,-264,-260
22,-250,-283
15,-258,-311
10,-268,-327
6,-296,-341
0,-327,-354
-3,-361,-359
-8,-388,-363
-11,-418,-363
-17,-438,-364
-22,-456,-360
-28,-477,-357
-33,-490,-352
-34,-500,-344
-43,-510,-337
-54,-514,-328
-66,-519,-322
-86,-525,-314
-102,-531,-305
-115,-538,-301
-113,-555,-296
-100,-578,-294
-78,-605,-287
-51,-634,-277
-17,-659,-265
19,-678,-250
50,-692,-234
76,-704,-213
96,-713,-193
106,-720,-170
111,-721,-147
111,-713,-125
100,-706,-102
84,-696,-80
63,-679,-63
33,-661,-49
5,-644,-35
-21,-630,-26
-48,-615,-16
-76,-598,-14
-98,-580,-8
-114,-560,-6
-127,-537,-10
-140,-514,-14
-150,-493,-17
-155,-477,-18
-162,-468,-25
-170,-460,-30
-179,-455,-29
-191,-451,-38
-209,-454,-38
-223,-458,-41
-236,-465,-44
-247,-469,-46
-256,-473,-50
-259,-473,-48
-261,-468,-47
-266,-467,-50
-268,-464,-48
-272,-465,-53
-276,-467,-57
-276,-468,-61
-282,-477,-64
-282,-481,-68
-285,-482,-76
-281,-494,-84
-284,-494,-89
-284,-498,-98
-286,-502,-102
-285,-500,-111
-289,-503,-121
-286,-502,-129
-289,-498,-137
-287,-488,-145
-290,-480,-146
-299,-469,-157
-306,-453,-165
-320,-434,-169
-335,-412,-170
-350,-388,-177
-358,-367,-182
-366,-341,-191
-369,-321,-197
-377,-297,-201
-381,-272,-206
-391,-247,-209
-399,-220,-214
-403,-190,-218
-413,-162,-219
-426,-136,-221
-444,-112,-221
-467,-89,-220
-493,-70,-219
-520,-52,-225
-551,-34,-224
-582,-18,-229
-614,-1,-232
-642,7,-241
-671,19,-249
-696,26,-260
-721,37,-271
-744,43,-284
-764,47,-296
-786,52,-309
-806,52,-319
-823,51,-328
-839,52,-338
-854,48,-343
-869,48,-347
-879,51,-346
-891,51,-344
-903,47,-342
-913,47,-337
-922,44,-331
-934,40,-325
-942,42,-318
-949,42,-307
-963,46,-296
-973,54,-282
-988,61,-268
-1007,76,-253
-1025,87,-234
-1044,98,-211
-1065,105,-193
-1093,116,-173
-1116,119,-153
-1144,128,-130
-1168,134,-112
-1191,141,-97
-1213,141,-74
-1232,150,-56
-1250,158,-38
-1268,160,-20
-1286,165,0
-1297,172,12
-1316,177,27
-1333,181,39
-1347,184,54
-1363,190,60
-1375,190,70
-1390,193,76
-1400,197,83
-1414,201,85
-1419,206,85
-1424,208,85
-1426,216,87
-1427,220,84
-1427,231,80
-1421,243,79
-1416,254,76
-1412,270,76
-1402,280,74
-1397,296,78
-1388,304,85
-1387,312,93
-1381,315,101
-1376,309,111
-1368,297,127
-1358,283,142
-1343,262,163
-1327,239,184
-1311,211,210
-1295,182,234
-1277,161,262
-1262,133,290
-1246,114,309
-1225,92,337
-1206,72,362
-1182,54,383
-1165,38,404
-1147,23,422
-1133,12,441
-1119,7,462
-1110,1,479
-1103,-4,496
-1098,-16,511
-1092,-25,529
-1086,-38,546
-1084,-54,562
-1085,-72,580
-1087,-92,596
-1088,-120,614
-1093,-144,629
-1106,-172,641
-1121,-199,653
-1145,-221,656
-1179,-237,658
-1216,-253,654
-1257,-264,643
-1303,-271,627
-1353,-276,608
-1404,-279,578
-1463,-283,541
-1528,-284,505
-1593,-287,463
-1663,-286,420
-1735,-294,372
-1804,-302,323
-1871,-317,276
-1930,-331,227
-1980,-349,187
-2024,-377,141
-2066,-402,104
-2097,-425,69
-2120,-450,37
-2140,-473,8
-2153,-489,-21
-2167,-502,-45
-2177,-518,-60
-2195,-529,-77
-2203,-541,-86
-2217,-552,-100
-2225,-563,-106
-2235,-574,-108
-2243,-584,-113
-2244,-589,-116
-2244,-600,-117
-2240,-607,-116
-2228,-617,-118
-2209,-625,-115
-2188,-636,-110
-2156,-645,-105
-2121,-655,-103
-2081,-664,-100
-2037,-670,-97
-1988,-676,-93
-1938,-681,-92
-1887,-685,-91
-1840,-684,-88
-1793,-684,-79
-1752,-681,-68
-1717,-675,-59
-1685,-667,-47
-1656,-660,-37
-1625,-660,-24
-1600,-655,-12
-1569,-655,0
-1544,-656,11
-1519,-663,19
-1496,-670,29
-1468,-676,36
-1442,-685,41
-1410,-698,46
-1376,-712,44
-1343,-724,39
-1311,-742,38
-1275,-759,35
-1235,-777,31
-1196,-791,27
-1158,-812,22
-1119,-827,16
-1078,-845,10
-1045,-857,7
-1005,-868,0
-968,-873,-5
-933,-875,-16
-898,-879,-19
-867,-886,-30
-830,-892,-35
-804,-898,-45
-777,-900,-52
-752,-900,-54
-733,-893,-57
-717,-888,-55
-698,-884,-50
-683,-873,-33
-669,-859,-22
-654,-843,-4
-635,-830,10
-624,-805,28
-612,-774,45
-606,-738,61
-596,-690,74
-593,-654,88
-587,-632,107
-592,-618,119
-594,-621,136
-597,-631,154
-598,-643,167
-591,-644,180
-591,-640,188
-588,-641,202
-587,-638,207
-583,-639,217
-589,-644,230
-592,-655,248
-602,-668,264
-614,-695,280
-627,-732,305
-631,-770,324
-636,-808,347
-636,-834,358
-637,-852,369
-638,-866,376
-635,-884,382
-618,-902,389
-585,-924,390
-539,-946,388
-483,-972,385
-429,-990,380
-379,-1001,368
-327,-995,358
-283,-974,339
-250,-958,319
-234,-939,305
-236,-924,284
-253,-906,268
-283,-891,246
-321,-871,226
-360,-837,206
-407,-789,178
-444,-736,151
-471,-674,123
-480,-617,97
-471,-568,72
-443,-524,46
-399,-484,26
-350,-449,9
-298,-424,-4
-243,-406,-10
-197,-389,-18
-152,-370,-18
-119,-359,-16
-89,-351,-3
-58,-354,7
-34,-355,29
-10,-353,54
8,-350,76
33,-343,105
55,-336,127
82,-327,152
113,-322,175
148,-318,197
180,-316,212
211,-314,224
237,-313,235
251,-305,237
256,-287,237
255,-249,230
252,-204,220
240,-158,214
233,-111,202
223,-64,192
219,-18,185
212,22,179
198,58,170
176,89,165
152,115,158
126,138,156
103,158,155
76,174,150
55,198,145
40,220,133
33,246,119
39,269,102
54,296,85
84,321,66
108,347,44
130,369,24
146,394,7
164,409,-1
172,420,-9
166,424,-20
156,426,-22
135,423,-29
106,413,-29
64,406,-30
22,397,-33
-28,378,-33
-76,357,-32
-125,327,-30
-166,297,-28
-199,259,-25
-225,227,-27
-240,195,-24
-248,168,-20
-245,146,-22
-235,129,-22
-214,121,-24
-187,112,-19
-159,114,-17
-121,114,-16
-83,119,-14
-45,122,-15
-8,120,-7
15,119,-2
39,114,9
53,110,18
63,106,28
72,105,34
79,103,41
86,103,51
91,101,50
92,95,60
97,89,60
96,86,64
96,84,68
96,79,69
96,73,68
99,70,68
98,68,69
101,69,62
104,71,61
99,71,56
96,78,51
90,83,46
86,92,37
83,97,30
77,106,25
69,110,22
58,113,21
50,114,20
40,111,19
27,112,15
11,114,13
1,117,13
-8,120,8
-17,124,3
-28,135,0
-36,144,-3
-40,158,-7
-53,170,-13
-66,182,-20
-73,189,-23
-79,191,-27
-84,194,-27
-87,195,-35
-87,194,-36
-84,196,-36
-77,196,-35
-76,201,-34
-71,194,-33
-61,202,-30
-55,208,-30
-49,220,-24
-45,229,-22
-48,244,-17
-47,258,-17
-45,269,-7
-47,286,-3
-49,299,2
-51,311,2
-50,324,2
-47,330,5
-47,335,9
-47,347,8
-44,358,8
-44,376,6
-39,393,7
-32,406,6
-32,423,5
-38,439,0
-46,459,-4
-60,484,-13
-69,504,-21
-81,527,-26
-92,548,-30
-104,565,-33
-116,584,-34
-124,605,-34
-134,621,-33
-143,637,-31
-150,660,-27
-166,678,-17
-187,704,-12
-211,734,-12
-238,761,-9
-262,791,-8
-284,814,-9
-295,832,-11
-297,849,-17
-296,862,-25
-286,870,-32
-281,867,-34
-279,855,-37
-285,841,-37
-298,828,-37
-312,818,-35
-326,808,-37
-339,802,-36
-353,796,-34
-370,783,-25
-385,767,-16
-397,749,-5
-406,728,1
-406,705,11
-401,678,17
-391,650,29
-380,618,35
-363,588,41
-347,554,50
-328,520,52
-309,488,57
-296,456,62
-281,429,62
-269,409,62
-260,388,58
-255,371,58
-248,365,53
-243,361,53
-243,365,60
-243,368,63
-251,376,67
-258,382,72
-268,394,81
-283,403,85
-295,415,93
-310,419,99
-319,426,105
-338,437,105
-350,442,102
-365,444,98
-387,447,91
-406,448,82
-433,448,65
-455,447,50
-480,444,28
-495,438,5
-509,438,-20
-517,441,-42
-530,441,-66
-539,444,-86
-548,448,-110
-562,458,-130
-578,465,-144
-598,477,-164
-618,480,-178
-636,484,-196
-660,481,-213
-677,476,-227
-689,466,-243
-688,454,-260
-677,445,-280
-657,440,-297
-631,455,-321
-602,479,-344
-565,520,-375
-524,574,-405
-489,637,-442
-464,705,-477
-451,776,-518
-455,840,-555
-472,894,-590
-493,941,-623
-528,982,-661
-570,1014,-690
-610,1040,-724
-652,1054,-759
-695,1062,-792
-729,1057,-821
-761,1043,-845
-794,1018,-868
-822,991,-884
-844,955,-895
-861,904,-905
-874,851,-909
-882,794,-912
-883,734,-910
-883,676,-905
-882,621,-898
-881,562,-885
-880,506,-869
-885,454,-845
-893,412,-821
-904,364,-789
-921,325,-751
-941,288,-715
-963,258,-674
-987,231,-635
-1010,210,-590
-1032,195,-551
-1053,184,-509
-1069,175,-469
-1081,160,-431
-1081,145,-397
-1081,127,-371
-1088,108,-351
-1094,78,-332
-1109,47,-322
-1129,14,-325
-1149,-15,-334
-1169,-31,-351
-1199,-40,-383
-1242,-37,-428
-1291,-31,-478
-1355,-17,-540
-1436,-9,-609
-1539,-4,-684
-1664,1,-767
-1796,-5,-854
-1939,-13,-945
-2085,-28,-1039
-2237,-49,-1135
-2387,-67,-1226
-2543,-89,-1314
-2704,-94,-1397
-2875,-88,-1477
-3032,-71,-1552
-3197,-49,-1624
-3347,-21,-1696
-3488,2,-1756
-3613,18,-1815
-3735,42,-1867
-3840,63,-1912
-3926,88,-1948
-4002,111,-1976
-4064,140,-2001
-4107,166,-2020
-4146,189,-2037
-4166,213,-2045
-4180,231,-2051
-4187,247,-2055
-4183,259,-2055
-4176,263,-2052
-4166,269,-2039
-4150,269,-2015
-4133,261,-1990
-4117,257,-1957
-4094,238,-1918
-4073,216,-1874
-4050,183,-1824
-4024,143,-1770
-3989,102,-1718
-3951,59,-1661
-3910,6,-1610
-3860,-51,-1555
-3806,-113,-1507
-3743,-176,-1458
-3662,-246,-1412
-3564,-310,-1370
-3455,-376,-1330
-3322,-443,-1295
-3179,-499,-1263
-3024,-549,-1233
-2858,-595,-1201
-2686,-629,-1172
-2506,-650,-1147
-2331,-662,-1119
-2154,-666,-1088
-1980,-666,-1056
-1813,-659,-1018
-1652,-651,-976
-1505,-640,-933
-1362,-628,-886
-1230,-614,-833
-1105,-604,-775
-993,-589,-715
-889,-580,-653
-797,-567,-591
-708,-558,-526
-628,-546,-465
-551,-528,-405
-478,-507,-342
-414,-482,-288
-356,-447,-237
-292,-412,-185
-231,-377,-137
-167,-343,-94
-100,-311,-47
-28,-280,-10
47,-256,25
132,-235,56
229,-217,87
330,-197,112
440,-184,144
556,-172,174
677,-161,205
804,-150,245
939,-131,290
1082,-114,344
1231,-92,403
1383,-68,472
1547,-55,541
1726,-42,614
1923,-32,692
2131,-22,770
2357,-9,850
2605,2,931
2862,11,1012
3123,28,1100
3379,45,1186
3624,57,1276
3855,69,1360
4075,81,1442
4280,83,1520
4463,94,1590
4619,99,1666
4746,101,1736
4839,106,1799
4913,108,1855
4972,108,1908
5018,105,1954
5054,95,1996
5087,86,2028
5126,72,2060
5156,57,2087
5179,41,2103
5200,16,2112
5220,-3,2125
5247,-18,2130
5266,-29,2136
5281,-24,2137
5289,-8,2126
5283,8,2110
5269,34,2096
5246,60,2068
5217,85,2038
5190,111,2002
5165,130,1965
5134,144,1927
5099,158,1882
5059,165,1844
5015,168,1804
4963,168,1762
4907,167,1726
4843,162,1689
4774,160,1654
4700,154,1617
4609,153,1584
4511,159,1548
4405,163,1511
4289,174,1471
4168,186,1433
4043,195,1393
3910,206,1353
3770,212,1309
3632,218,1264
3499,219,1216
3360,221,1165
3227,220,1108
3097,215,1048
2979,206,990
2866,199,926
2758,184,867
2661,172,800
2566,155,738
2477,146,677
2391,129,615
2309,117,557
2226,100,505
2146,87,455
2065,72,408
1986,56,364
1904,37,324
1825,22,287
1744,7,254
1669,-13,222
1595,-31,192
1525,-52,172
1456,-70,147
1392,-90,127
1332,-105,105
1274,-121,83
1219,-136,60
1166,-151,47
1116,-168,28
1064,-182,16
1016,-194,1
976,-206,-15
934,-217,-28
889,-223,-45
844,-231,-60
799,-232,-80
758,-232,-92
721,-230,-110
682,-222,-127
652,-214,-147
625,-206,-161
599,-193,-182
580,-180,-206
567,-168,-227
556,-158,-248
555,-155,-266
553,-157,-283
552,-160,-298
552,-170,-308
554,-177,-318
552,-189,-326
548,-205,-333
538,-221,-332
525,-241,-330
504,-263,-324
479,-284,-312
454,-305,-301
419,-320,-290
390,-333,-279
355,-334,-264
318,-330,-254
284,-328,-246
252,-329,-237
226,-331,-231
207,-345,-221
192,-361,-220
180,-374,-207
174,-384,-203
173,-383,-193
177,-360,-194
180,-334,-198
183,-316,-199
185,-291,-202
179,-270,-203
176,-251,-203
172,-232,-207
169,-221,-208
167,-226,-201
161,-247,-196
156,-279,-182
149,-319,-177
147,-354,-166
146,-392,-160
151,-429,-154
165,-466,-156
189,-499,-156
224,-531,-155
271,-556,-153
325,-577,-153
381,-581,-155
431,-579,-155
478,-576,-155
509,-572,-157
533,-560,-162
539,-555,-170
540,-563,-173
532,-576,-172
535,-598,-170
530,-619,-165
527,-646,-162
524,-675,-157
519,-699,-158
517,-716,-156
514,-733,-158
512,-754,-160
516,-765,-156
515,-761,-157
509,-743,-158
505,-714,-157
499,-676,-154
491,-647,-148
478,-610,-139
466,-568,-141
451,-534,-134
439,-516,-132
421,-503,-130
402,-498,-127
384,-492,-126
364,-475,-124
347,-457,-127
336,-436,-130
334,-401,-136
338,-354,-138
339,-297,-141
352,-252,-136
355,-207,-129
357,-169,-125
360,-134,-114
350,-97,-108
344,-57,-101
329,-13,-90
319,35,-74
299,88,-61
278,146,-49
254,203,-45
229,260,-39
211,322,-44
202,377,-49
197,422,-66
211,459,-88
228,490,-110
244,506,-127
258,508,-147
267,505,-168
274,492,-190
273,475,-205
256,456,-219
227,433,-229
178,411,-235
112,388,-240
45,365,-245
-10,336,-247
-64,300,-247
-113,263,-251
-155,218,-256
-192,165,-263
-214,119,-274
-226,74,-285
-233,46,-304
-231,51,-316
-215,96,-325
-195,178,-332
-174,285,-335
-148,405,-336
-125,518,-329
-103,630,-318
-83,724,-305
-69,812,-297
-60,874,-292
-55,915,-282
-56,932,-285
-58,941,-287
-60,940,-297
-59,933,-308
-59,924,-322
-47,919,-340
-38,913,-361
-27,917,-383
-13,922,-413
1,928,-435
13,939,-462
20,954,-489
22,968,-515
21,989,-539
17,1006,-564
10,1017,-584
6,1021,-607
2,1018,-624
-4,1011,-641
-4,1004,-654
-12,994,-667
-20,984,-674
-34,978,-682
-44,959,-688
-56,948,-692
-68,935,-690
-81,933,-691
-94,920,-687
-101,903,-688
-112,898,-682
-113,880,-685
-117,869,-681
-121,843,-685
-117,818,-692
-109,792,-697
-96,770,-706
-83,750,-710
-71,740,-711
-58,729,-706
-50,730,-698
-33,742,-687
-11,757,-675
10,770,-656
34,781,-637
53,775,-617
74,762,-594
98,735,-576
119,697,-553
144,654,-537
168,608,-521
186,568,-504
204,546,-491
228,532,-480
251,522,-468
271,524,-460
299,524,-451
322,523,-449
350,518,-443
369,507,-441
391,486,-439
407,456,-439
423,416,-444
433,360,-452
444,295,-467
451,230,-473
456,184,-480
457,161,-483
444,158,-483
423,175,-479
398,201,-463
368,232,-450
331,262,-441
290,292,-427
251,324,-416
206,349,-400
167,368,-385
121,381,-374
83,381,-363
40,376,-349
2,367,-337
-29,342,-326
-60,314,-322
-79,280,-319
-96,240,-319
-99,198,-324
-105,156,-327
-103,106,-333
-99,61,-340
-93,22,-350
-87,-7,-360
-79,-38,-371
-67,-61,-383
-58,-76,-392
-48,-74,-398
-39,-47,-403
-37,-12,-404
-39,22,-399
-48,62,-392
-62,103,-386
-79,152,-376
-98,192,-374
-118,235,-371
-141,280,-368
-160,325,-368
-177,363,-369
-187,393,-376
-197,418,-389
-207,439,-401
-216,457,-419
-227,457,-442
-235,451,-464
-239,442,-484
-241,426,-510
-238,406,-539
-235,384,-571
-224,357,-604
-207,344,-637
-194,351,-666
-180,362,-692
-171,378,-719
-166,404,-743
-163,438,-768
-157,469,-791
-158,501,-820
-157,533,-845
-160,559,-871
-158,587,-901
-151,608,-931
-141,623,-961
-127,635,-989
-114,646,-1017
-97,653,-1040
-91,650,-1061
-90,652,-1080
-93,649,-1088
-102,644,-1094
-114,639,-1098
-125,630,-1105
-129,621,-1101
-130,618,-1105
-129,613,-1105
-123,611,-1103
-113,603,-1108
-101,594,-1109
-86,582,-1120
-69,572,-1123
-51,559,-1126
-31,545,-1126
-18,534,-1124
-15,519,-1115
-14,508,-1102
-23,494,-1088
-39,483,-1070
-57,471,-1048
-77,464,-1027
-97,456,-1006
-112,452,-990
-129,446,-971
-150,437,-950
-165,430,-935
-177,421,-922
-180,413,-913
-176,405,-904
-172,404,-896
-158,403,-890
-144,413,-876
-126,432,-865
-95,473,-845
-51,540,-821
-3,640,-789
49,760,-731
103,889,-644
150,1035,-522
196,1180,-359
231,1327,-153
252,1443,66
268,1484,278
292,1474,465
305,1421,628
309,1319,757
296,1178,860
263,1011,940
229,829,1002
187,649,1044
140,497,1071
97,361,1084
57,239,1089
31,134,1081
10,35,1063
0,-46,1044
-19,-118,1034
-52,-172,1029
-98,-211,1036
-151,-240,1052
-217,-262,1070
-287,-280,1086
-367,-286,1107
-456,-282,1130
-554,-255,1154
-660,-210,1173
-762,-159,1187
-869,-92,1188
-976,-15,1177
-1079,60,1158
-1187,133,1128
-1287,206,1080
-1379,274,1018
-1450,327,932
-1502,371,837
-1533,406,726
-1532,421,602
-1507,421,467
-1453,409,321
-1379,378,170
-1289,338,22
-1183,292,-121
-1059,237,-257
-934,168,-380
-803,92,-489
-685,13,-579
-578,-61,-654
-478,-127,-715
-385,-183,-749
-300,-224,-765
-220,-248,-754
-147,-266,-734
-79,-272,-700
-17,-282,-653
40,-284,-607
97,-281,-558
148,-272,-522
196,-259,-504
239,-247,-496
266,-234,-498
280,-226,-511
284,-219,-537
296,-213,-573
319,-217,-611
350,-215,-639
379,-209,-656
411,-209,-651
443,-216,-643
487,-237,-623
516,-286,-600
532,-351,-580
544,-417,-559
554,-487,-543
572,-549,-539
586,-606,-535
575,-654,-511
552,-697,-465
521,-730,-386
484,-758,-291
458,-791,-197
446,-822,-104
439,-856,-8
436,-907,90
443,-962,184
470,-1012,275
504,-1058,356
550,-1097,434
581,-1125,505
600,-1146,579
588,-1148,659
547,-1130,745
479,-1108,830
399,-1059,912
313,-1003,985
241,-945,1047
185,-896,1097
149,-870,1135
135,-851,1160
138,-850,1167
168,-874,1166
205,-911,1149
255,-959,1129
314,-1008,1094
372,-1068,1063
420,-1125,1034
447,-1178,1015
458,-1224,1008
445,-1258,1009
417,-1277,1030
370,-1284,1059
313,-1291,1097
243,-1295,1139
178,-1296,1180
111,-1312,1217
53,-1339,1248
8,-1377,1259
-13,-1430,1262
-23,-1500,1252
-28,-1581,1234
-22,-1666,1210
-13,-1754,1182
0,-1839,1147
14,-1928,1118
25,-1999,1082
36,-2063,1047
52,-2116,1010
72,-2155,976
93,-2192,944
114,-2223,910
129,-2242,880
139,-2256,850
144,-2255,817
144,-2238,783
133,-2203,747
121,-2155,708
105,-2105,665
81,-2048,622
60,-1992,582
31,-1943,541
-2,-1892,510
-38,-1849,478
-73,-1809,453
-108,-1774,428
-138,-1748,411
-175,-1722,391
-212,-1701,374
-255,-1679,361
-298,-1645,347
-338,-1602,335
-380,-1553,323
-419,-1500,314
-464,-1447,299
-500,-1402,285
-524,-1367,266
-534,-1344,234
-520,-1324,179
-481,-1320,107
-411,-1325,20
-333,-1312,-81
-259,-1304,-194
-199,-1315,-299
-155,-1347,-389
-133,-1379,-466
-155,-1393,-521
-234,-1377,-550
-359,-1294,-562
-510,-1153,-559
-681,-942,-546
-867,-697,-527
-1044,-435,-493
-1208,-171,-465
-1329,61,-438
-1402,262,-412
-1422,426,-387
-1399,561,-373
-1338,676,-369
-1246,767,-365
-1154,829,-368
-1060,873,-372
-962,895,-368
-871,905,-365
-789,895,-359
-721,874,-350
-665,842,-337
-619,804,-325
-578,773,-315
-537,744,-305
-503,715,-293
-471,703,-283
-447,687,-273
-426,680,-256
-411,668,-243
-403,656,-228
-400,641,-210
-408,614,-187
-412,576,-165
-419,536,-138
-423,487,-112
-423,440,-88
-425,408,-65
-415,383,-49
-409,365,-32
-390,354,-19
-353,350,-6
-309,350,-3
-264,350,3
-210,351,8
-160,354,21
-114,363,35
-81,376,59
-66,391,86
-74,411,121
-88,425,161
-116,441,203
-145,453,242
-173,463,281
-193,477,315
-213,485,346
-226,500,371
-231,514,391
-236,525,407
-234,534,423
-232,543,432
-221,547,442
-217,550,451
-207,552,458
-202,561,467
-202,574,478
-211,592,489
-232,619,494
-263,657,501
-293,706,506
-336,768,507
-393,835,500
-457,904,496
-517,976,486
-574,1047,466
-621,1112,448
-657,1174,424
-677,1234,402
-685,1284,376
-678,1333,355
-660,1374,327
-626,1415,308
-597,1453,286
-562,1496,269
-540,1537,260
-537,1582,249
-542,1625,241
-552,1668,228
-565,1710,218
-569,1749,206
-567,1780,193
-554,1815,184
-523,1839,172
-484,1857,156
-429,1870,142
-372,1879,122
-307,1884,105
-252,1885,92
-203,1881,83
-178,1881,81
-159,1877,79
-152,1879,73
-155,1884,68
-157,1889,64
-154,1896,57
-151,1908,51
-146,1920,39
-133,1931,37
-116,1945,32
-95,1954,30
-65,1966,26
-39,1975,28
-13,1983,30
6,1981,39
20,1977,53
29,1967,71
29,1955,92
22,1946,123
6,1933,151
-17,1921,173
-42,1908,194
-65,1901,204
-80,1898,219
-92,1906,225
-103,1915,228
-110,1926,228
-111,1928,227
-100,1920,220
-84,1907,204
-56,1885,187
-25,1864,162
8,1837,139
43,1813,110
77,1792,83
114,1768,68
147,1747,58
174,1733,54
194,1728,51
210,1724,59
210,1730,70
209,1739,89
194,1755,104
177,1771,130
155,1792,154
133,1815,173
116,1843,190
106,1874,202
96,1910,213
89,1944,224
87,1985,232
88,2029,236
89,2084,237
87,2145,234
82,2214,232
69,2282,229
58,2348,230
43,2409,227
26,2468,223
1,2528,225
-28,2590,231
-63,2640,231
-106,2693,239
-155,2743,247
-204,2780,260
-258,2798,276
-324,2795,290
-395,2766,310
-468,2706,329
-524,2640,329
-552,2578,309
-554,2552,274
-524,2564,218
-459,2646,141
-376,2808,55
-274,3051,-40
-133,3365,-153
5,3747,-260
115,4181,-344
178,4619,-408
192,5021,-447
153,5365,-466
64,5628,-461
-83,5803,-434
-269,5888,-386
-467,5905,-324
-647,5866,-256
-797,5774,-186
-902,5639,-124
-979,5479,-65
-1024,5306,-9
-1052,5140,40
-1056,4970,88
-1046,4805,121
-1023,4660,145
-1004,4540,156
-979,4439,164
-961,4338,180
-945,4238,191
-913,4129,210
-877,4007,216
-838,3887,211
-798,3776,192
-759,3678,168
-734,3588,144
-720,3505,136
-709,3424,141
-700,3334,153
-685,3236,171
-672,3137,195
-668,3038,213
-665,2939,230
-659,2835,242
-649,2733,253
-642,2642,249
-634,2559,238
-626,2487,226
-616,2432,198
-604,2386,177
-588,2348,147
-577,2309,118
-573,2268,97
-580,2227,94
-589,2184,96
-594,2140,103
-594,2106,107
-583,2074,108
-563,2043,104
-537,2002,99
-502,1961,94
-466,1914,87
-437,1872,76
-413,1825,60
-393,1777,43
-377,1729,28
-355,1683,5
-338,1637,-13
-319,1584,-27
-301,1539,-34
-292,1501,-38
-280,1466,-37
-270,1436,-40
-259,1403,-42
-257,1378,-43
-259,1346,-42
-252,1318,-43
-248,1291,-50
-233,1259,-59
-224,1231,-63
-207,1199,-75
-190,1163,-82
-174,1127,-89
-164,1092,-90
-151,1057,-90
-142,1021,-83
-138,994,-77
-133,958,-70
-137,927,-63
-141,894,-60
-141,860,-58
-138,824,-61
-132,788,-61
-125,757,-63
-117,723,-71
-106,691,-77
-91,653,-89
-79,625,-105
-62,592,-118
-44,572,-136
-28,552,-154
-10,528,-166
14,503,-180
31,484,-189
53,458,-198
73,439,-206
94,417,-218
108,392,-223
119,366,-229
127,337,-234
130,313,-240
128,286,-242
126,257,-245
125,221,-247
131,183,-252
140,153,-264
154,127,-273
174,110,-289
198,95,-305
211,80,-303
217,65,-303
211,53,-290
203,52,-278
191,38,-267
183,26,-265
179,32,-262
178,27,-266
178,31,-276
183,50,-289
190,66,-299
198,74,-312
204,85,-327
209,96,-339
211,94,-351
206,91,-357
206,92,-366
199,87,-379
193,80,-392
185,82,-415
179,93,-441
179,107,-466
183,127,-500
187,154,-528
192,183,-555
195,219,-580
204,268,-605
212,316,-626
215,367,-640
218,420,-649
215,471,-655
225,519,-652
243,555,-632
286,571,-592
362,541,-511
473,439,-380
593,270,-224
680,126,-101
730,65,-31
769,52,7
799,67,42
811,94,76
815,136,118
831,195,177
844,246,253
864,285,345
881,301,445
880,299,545
862,281,633
841,259,706
806,238,772
761,221,827
701,214,882
626,226,932
541,252,974
456,291,1008
379,330,1033
307,372,1051
239,402,1061
168,416,1059
105,431,1057
49,449,1046
-4,472,1036
-46,499,1021
-80,516,998
-105,529,975
-126,522,955
-139,497,924
-143,459,894
-154,421,857
-161,376,803
-172,328,743
-182,277,671
-187,232,592
-194,194,507
-201,150,428
-204,104,354
-203,47,292
-192,-23,245
-173,-96,214
-138,-167,188
-91,-194,171
-53,-190,164
-25,-178,170
-9,-148,176
-6,-115,179
-18,-80,181
-44,-64,181
-78,-74,182
-116,-112,180
-154,-166,173
-189,-232,168
-213,-301,163
-233,-371,160
-235,-428,154
-227,-469,141
-218,-490,129
-213,-497,114
-211,-505,104
-212,-516,102
-218,-522,94
-220,-527,86
-229,-552,78
-231,-569,62
-230,-584,47
-223,-586,24
-208,-569,-6
-195,-544,-39
-171,-509,-68
-153,-469,-100
-133,-431,-120
-118,-395,-142
-105,-365,-158
-86,-345,-172
-64,-332,-174
-43,-315,-180
-22,-304,-177
-11,-295,-180
-2,-284,-178
-4,-274,-173
-15,-259,-158
-27,-250,-139
-41,-239,-120
-54,-223,-102
-69,-202,-84
-87,-171,-69
-101,-141,-50
-114,-112,-32
-120,-94,-20
-126,-76,-9
-129,-71,-1
-128,-73,4
-124,-74,0
-114,-73,-8
-103,-79,-22
-88,-87,-40
-78,-98,-54
-69,-114,-70
-67,-125,-90
-69,-140,-107
-77,-156,-120
-92,-166,-136
-100,-171,-152
-111,-180,-164
-126,-175,-181
-138,-169,-195
-150,-166,-214
-160,-150,-220
-171,-137,-226
-179,-128,-227
-182,-115,-226
-181,-103,-222
-178,-98,-221
-171,-90,-213
-160,-82,-205
-139,-79,-200
-125,-72,-193
-103,-68,-183
-83,-68,-174
-58,-52,-168
-39,-63,-161
-18,-72,-151
1,-85,-149
24,-88,-142
43,-88,-141
64,-85,-137
82,-71,-142
96,-66,-146
109,-65,-149
121,-57,-156
136,-54,-163
144,-44,-165
152,-39,-171
159,-38,-174
162,-39,-177
166,-39,-181
163,-37,-187
162,14,-183
156,32,-181
152,19,-178
133,45,-178
141,29,-173
125,-24,-168
116,-66,-159
108,-76,-151
94,-97,-146
78,-120,-138
62,-138,-130
48,-149,-125
34,-158,-121
21,-162,-116
9,-163,-106
0,-158,-106
-6,-156,-105
-11,-149,-98
-16,-145,-94
-13,-143,-90
-12,-137,-82
-2,-131,-76
6,-129,-70
16,-122,-67
24,-118,-63
37,-116,-56
49,-114,-54
65,-113,-52
81,-109,-49
99,-112,-50
112,-112,-53
121,-111,-55
135,-111,-63
144,-105,-66
148,-100,-69
156,-93,-72
163,-85,-78
162,-76,-79
164,-67,-82
159,-58,-86
153,-47,-84
139,-36,-81
128,-24,-79
117,-15,-81
111,-3,-77
107,0,-76
107,6,-74
109,13,-71
111,12,-73
116,18,-71
119,18,-71
123,15,-69
123,12,-63
119,11,-62
116,7,-64
106,3,-59
98,2,-57
86,4,-55
74,6,-56
60,4,-52
50,9,-51
37,13,-51
27,17,-47
18,17,-46
14,16,-45
11,19,-42
11,18,-43
7,20,-39
7,22,-40
7,19,-37
11,16,-29
16,12,-22
25,11,-12
29,6,-9
39,2,-7
44,-3,3
48,-8,1
53,-18,6
59,-24,11
58,-30,14
58,-40,14
55,-41,18
53,-50,15
56,-53,16
56,-56,12
56,-52,12
53,-51,9
50,-46,3
52,-44,-3
49,-41,-6
46,-37,-7
46,-37,-10
41,-38,-15
41,-44,-13
35,-47,-20
33,-51,-19
28,-57,-21
24,-62,-21
18,-60,-25
15,-63,-27
7,-58,-33
0,-55,-35
-8,-47,-42
-15,-37,-45
-27,-28,-50
-37,-18,-56
-45,-8,-57
-50,0,-60
-57,7,-57
-61,13,-60
-65,14,-56
-67,16,-52
-69,19,-46
-71,24,-39
-68,26,-32
-68,26,-30
-63,37,-25
-61,38,-24
-62,50,-23
-58,53,-21
-56,64,-20
-55,72,-22
-50,79,-27
-44,86,-31
-42,94,-35
-37,98,-33
-34,96,-31
-35,96,-28
-34,88,-23
-36,80,-13
-37,69,-3
-36,58,2
-37,47,15
-29,33,20
-22,23,29
-10,12,34
1,5,40
14,-5,41
25,-8,42
38,-12,42
47,-7,36
57,-3,30
60,4,20
61,19,12
59,29,3
54,38,-3
49,52,-9
40,57,-15
31,59,-18
20,61,-18
6,61,-13
-4,58,-7
-14,55,-2
-23,51,7
-29,41,13
-33,37,18
-34,35,22
-29,38,26
-27,41,34
-23,42,35
-14,45,38
-15,52,37
-8,58,37
-4,66,36
0,72,32
1,70,32
0,72,30
0,70,27
-1,69,23
-3,60,24
0,56,21
0,47,16
6,41,15
8,33,12
13,26,9
16,26,5
22,21,5
26,20,2
31,21,0
33,27,-7
35,31,-14
35,33,-17
36,37,-19
34,40,-24
32,37,-27
27,30,-28
23,31,-28
17,19,-28
9,10,-27
3,-4,-18
-8,-13,-16
-18,-25,-11
-29,-35,-7
-40,-41,-6
-49,-46,1
-57,-45,5
-61,-40,9
-64,-32,11
-63,-25,12
-57,-19,11
-53,-12,12
-44,-5,14
-34,-3,18
-23,-7,20
-13,-11,23
-2,-13,22
0,-15,20
3,-23,26
4,-25,26
8,-31,30
7,-35,26
7,-36,25
7,-37,25
11,-37,23
8,-37,23
12,-32,23
14,-26,21
23,-22,18
28,-18,13
35,-10,11
43,-6,12
48,-1,16
51,3,20
53,5,26
57,5,28
61,9,32
72,12,30
82,17,26
102,21,20
121,25,17
136,30,9
152,29,1
160,32,-8
164,39,-16
163,46,-27
160,49,-37
156,54,-47
145,57,-57
134,60,-66
122,61,-70
105,61,-76
94,62,-77
79,59,-74
64,59,-70
49,56,-62
35,51,-58
25,51,-51
16,50,-46
11,47,-41
6,45,-35
6,43,-31
5,47,-26
5,47,-21
7,50,-21
11,52,-21
12,54,-21
20,59,-19
22,59,-21
25,55,-19
28,49,-20
32,44,-18
32,35,-17
40,28,-16
47,20,-16
49,10,-17
56,2,-19
62,0,-22
68,-5,-25
71,-6,-27
73,-11,-26
75,-9,-30
73,-6,-34
68,-3,-35
61,4,-38
52,11,-35
34,21,-33
25,28,-27
15,35,-19
3,43,-18
-4,48,-11
-10,55,-1
-15,64,0
-19,72,5
-20,80,14
-21,81,22
-21,85,26
-16,92,30
-10,90,40
-6,94,44
3,92,46
7,91,54
12,89,59
19,84,63
20,82,68
18,71,73
18,66,81
11,53,85
3,43,89
-8,33,94
-22,26,98
-32,22,104
-47,26,115
-54,26,126
-55,25,139
-50,24,150
-38,25,159
-25,29,165
-11,29,173
0,32,180
15,37,184
28,50,190
36,77,194
31,114,207
21,160,224
7,214,244
-14,272,262
-38,322,282
-72,365,298
-104,392,320
-136,411,336
-151,419,354
-174,425,368
-196,438,381
-220,451,387
-236,468,388
-242,485,377
-257,513,357
-273,563,322
-293,621,271
-303,690,204
-315,754,135
-328,795,54
-352,806,-13
-372,775,-61
-391,698,-93
-396,615,-96
-403,545,-83
-407,499,-56
-406,467,-19
-392,434,38
-366,405,94
-325,384,161
-276,364,231
-213,340,299
-142,325,370
-71,311,440
-1,289,502
63,261,555
122,229,600
177,199,636
222,173,663
252,155,680
277,138,684
291,135,686
296,129,675
287,125,658
268,122,639
242,113,610
206,95,580
171,79,543
136,63,504
102,33,462
73,6,413
45,-18,376
17,-53,330
-2,-86,293
-27,-119,260
-47,-157,223
-64,-187,190
-74,-216,156
-82,-249,124
-87,-277,88
-86,-304,57
-80,-336,29
-75,-360,2
-65,-390,-26
-56,-411,-54
-58,-422,-78
-56,-452,-95
-62,-460,-115
-79,-448,-136
-99,-462,-155
-124,-460,-175
-153,-439,-192
-184,-446,-205
-217,-429,-217
-245,-423,-234
-270,-419,-249
-288,-409,-258
-299,-417,-270
-300,-424,-278
-292,-428,-284
-276,-433,-288
-252,-424,-299
-218,-426,-300
-171,-411,-305
-116,-398,-309
-54,-376,-318
14,-362,-337
84,-340,-350
152,-330,-363
218,-302,-370
283,-288,-369
334,-296,-362
387,-307,-348
434,-310,-335
479,-336,-317
516,-369,-301
549,-392,-285
578,-412,-270
602,-437,-257
616,-446,-254
608,-448,-261
600,-451,-267
586,-440,-272
563,-421,-282
540,-405,-291
508,-377,-294
473,-345,-295
431,-325,-294
392,-293,-298
360,-255,-303
326,-232,-311
302,-188,-326
278,-160,-341
259,-124,-352
239,-91,-364
223,-64,-372
209,-37,-386
198,-15,-392
193,-5,-400
185,-1,-406
178,-4,-413
172,-13,-412
162,-30,-412
156,-48,-410
150,-67,-404
139,-82,-400
128,-98,-398
119,-105,-393
106,-115,-389
98,-119,-387
91,-116,-382
84,-106,-380
74,-101,-369
64,-83,-358
52,-64,-339
38,-39,-325
27,-17,-297
12,11,-269
-2,38,-239
-17,63,-202
-34,87,-168
-49,109,-128
-58,134,-86
-69,154,-46
-79,176,-5
-84,194,35
-94,214,76
-99,229,112
-101,247,153
-105,255,184
-111,262,215
-117,277,243
-122,286,272
-132,298,294
-139,315,314
-149,338,333
-150,370,347
-155,407,359
-155,447,378
-161,482,394
-177,516,412
-190,542,430
-199,584,445
-207,643,458
-230,716,476
-257,801,492
-272,895,504
-276,1001,510
-271,1101,512
-252,1182,517
-227,1246,513
-199,1287,510
-189,1293,502
-191,1260,494
-209,1184,474
-236,1084,446
-278,969,394
-334,845,329
-391,709,263
-444,576,206
-488,470,165
-513,394,145
-521,331,145
-511,280,173
-490,229,215
-452,186,272
-399,128,334
-320,58,399
-222,-27,467
-105,-122,540
8,-209,613
109,-300,686
187,-399,741
244,-496,773
275,-534,764
264,-490,705
218,-409,631
152,-320,562
87,-217,500
24,-103,445
-36,-7,402
-95,53,378
-140,84,374
-178,91,375
-200,93,376
-202,97,372
-194,85,366
-185,65,356
-171,50,340
-156,70,304
-149,113,251
-146,135,214
-149,134,185
-159,124,158
-164,99,138
-166,69,119
-164,38,105
-157,4,95
-146,-24,89
-126,-54,87
-102,-92,89
-71,-119,91
-42,-145,101
-15,-182,124
-1,-244,158
10,-321,199
18,-401,244
27,-465,280
34,-486,307
30,-467,322
7,-433,328
-26,-386,318
-55,-334,284
-64,-313,240
-33,-331,184
39,-376,115
145,-426,32
260,-469,-42
373,-508,-99
473,-527,-135
554,-515,-157
616,-462,-163
668,-349,-178
704,-196,-209
719,-50,-234
710,88,-259
684,213,-284
653,308,-310
619,363,-336
581,386,-357
541,378,-364
503,345,-358
461,300,-353
421,245,-338
376,184,-324
333,110,-306
297,32,-286
269,-46,-258
243,-126,-230
223,-185,-195
206,-229,-161
190,-255,-125
166,-251,-96
143,-241,-65
116,-213,-47
85,-174,-38
51,-130,-39
20,-99,-46
-10,-79,-58
-40,-74,-76
-72,-84,-93
-104,-99,-118
-136,-121,-145
-164,-127,-180
-185,-136,-221
-203,-121,-266
-213,-88,-324
-221,-53,-391
-231,11,-463
-239,45,-530
-252,75,-596
-266,133,-665
-281,148,-732
-304,213,-800
-323,202,-871
-342,247,-946
-358,262,-1006
-378,261,-1061
-399,213,-1092
-416,158,-1110
-438,80,-1115
-462,-34,-1108
-484,-145,-1101
-507,-279,-1095
-526,-400,-1095
-543,-500,-1101
-547,-606,-1102
-533,-676,-1109
-510,-741,-1122
-491,-788,-1138
-485,-837,-1163
-497,-886,-1195
-524,-921,-1227
-553,-956,-1261
-588,-989,-1295
-621,-1021,-1329
-650,-1062,-1358
-668,-1103,-1384
-667,-1133,-1401
-657,-1160,-1412
-649,-1158,-1411
-632,-1131,-1398
-616,-1130,-1377
-606,-1099,-1340
-601,-1080,-1295
-593,-1039,-1248
-576,-1010,-1198
-553,-966,-1150
-536,-917,-1102
-517,-878,-1049
-500,-832,-979
-479,-796,-905
-455,-741,-822
-430,-694,-726
-401,-632,-634
-367,-580,-543
-323,-526,-466
-273,-466,-404
-216,-416,-348
-160,-365,-289
-101,-324,-235
-47,-290,-176
2,-259,-105
47,-229,-25
89,-203,61
125,-175,142
170,-153,217
216,-128,278
266,-98,322
320,-55,359
376,1,386
428,59,407
468,117,429
506,162,449
530,203,471
545,236,483
545,250,496
545,245,508
552,226,517
557,199,526
560,181,533
565,163,541
570,152,544
567,149,556
565,152,568
566,163,579
570,178,590
582,194,601
592,204,606
604,195,615
623,165,617
638,105,620
644,27,615
639,-47,602
619,-97,582
596,-116,564
561,-111,545
527,-93,529
492,-60,508
456,-10,492
426,44,473
399,102,459
377,163,444
355,224,433
336,278,420
325,322,410
319,359,396
315,391,381
320,411,371
326,414,359
332,420,343
339,418,330
343,416,319
353,402,311
354,389,300
357,370,292
361,346,278
364,325,269
362,304,253
361,281,238
359,260,224
356,236,208
354,206,192
352,172,180
342,142,165
332,110,151
322,75,137
311,42,122
299,12,109
287,-19,97
274,-47,83
264,-69,75
251,-84,63
240,-99,52
228,-112,46
219,-115,38
212,-118,31
208,-115,24
200,-111,18
193,-105,15
186,-96,9
177,-86,1
167,-76,0
158,-63,-2
148,-51,-1
136,-38,-4
129,-24,-8
120,-13,-12
113,-3,-13
105,4,-17
99,10,-25
92,10,-28
85,15,-33
80,11,-40
68,9,-45
62,0,-49
53,-3,-49
46,-15,-54
35,-21,-56
27,-26,-57
19,-32,-63
10,-35,-66
2,-35,-67
-6,-39,-67
-16,-39,-68
-23,-39,-70
-27,-38,-73
-33,-42,-75
-41,-36,-70
-45,-37,-67
-49,-37,-62
-49,-36,-57
-51,-32,-52
-51,-32,-48
-48,-30,-41
-43,-32,-40
-41,-25,-36
-38,-22,-30
-33,-22,-28
-30,-17,-25
-26,-12,-23
-17,-13,-22
-9,-9,-20
-5,-2,-19
5,-1,-23
13,0,-21
23,4,-23
30,8,-25
42,9,-23
53,8,-25
59,14,-29
65,4,-31
70,9,-31
72,5,-34
77,1,-29
80,-1,-27
81,-9,-27
78,-12,-23
76,-13,-19
73,-15,-16
70,-19,-19
66,-20,-13
62,-19,-14
56,-20,-10
49,-18,-7
45,-13,-6
42,-13,-1
35,-8,-2
29,-5,2
25,-4,9
20,0,7
22,2,9
17,10,10
12,14,13
12,15,11
10,19,15
5,24,15
3,23,13
2,19,14
2,19,14
-1,20,10
0,17,5
0,16,3
1,10,1
1,6,-1
0,5,-3
-1,2,-2
-5,0,0
-9,-2,-2
-12,-2,0
-16,-2,0
-19,0,-3
-22,-2,-2
-20,0,-3
-21,1,-1
-21,1,0
-23,2,3
-19,3,9
-15,3,9
-13,0,14
-8,-1,14
-6,-2,14
-3,-7,14
2,-6,12
5,-7,6
11,-3,2
14,-1,-1
17,1,-4
24,6,-9
21,8,-9
17,14,-10
14,13,-3
9,16,1
6,16,6
-1,23,8
0,25,9
2,33,8
12,36,8
21,32,8
34,36,8
46,35,6
53,32,4
60,27,2
68,21,-1
67,16,-4
66,10,-8
63,8,-11
54,3,-11
49,6,-12
40,5,-14
31,7,-12
26,7,-8
17,11,-7
14,11,-2
10,13,-3
6,18,-1
4,23,3
0,28,2
2,30,4
4,37,7
5,40,5
7,37,7
9,39,7
13,34,12
13,29,8
13,22,11
13,16,13
10,9,16
6,3,15
7,-1,16
3,-3,13
5,-2,13
7,-2,8
11,3,9
10,4,7
17,5,4
17,9,-1
24,12,-5
27,10,-5
30,11,-4
37,11,0
38,14,0
39,13,-2
40,14,-2
39,14,-2
38,12,-1
37,9,0
34,8,4
35,7,6
34,7,6
33,8,9
36,6,8
37,4,10
36,8,5
37,13,4
39,17,4
37,24,-1
37,26,0
37,30,-2
37,28,2
38,30,-3
37,29,0
37,26,-2
33,26,-1
35,25,0
30,20,3
34,17,1
32,15,3
29,12,2
25,13,1
25,13,5
20,18,3
19,17,2
15,18,2
14,19,3
14,16,1
14,17,4
12,18,0
12,12,0
11,9,-3
13,6,-5
9,4,-5
12,4,-5
11,7,-6
12,8,-8
13,15,-8
15,17,-16
18,25,-14
18,28,-13
14,34,-16
10,39,-11
2,40,-8
-2,42,-6
-14,44,-1
-17,42,6
-18,45,5
-10,48,1
4,45,-3
15,42,-5
26,39,-10
33,35,-9
39,29,-10
42,18,-9
44,11,-10
44,1,-9
41,-11,-9
35,-15,-12
26,-21,-10
19,-25,-13
11,-29,-9
2,-29,-9
-6,-24,-6
-15,-19,-2
-23,-13,-1
-29,-10,1
-33,-8,8
-34,-5,7
-36,-3,11
-36,-1,12
-30,-2,14
-21,-1,13
-12,0,13
-4,-5,19
6,-9,19
15,-13,16
18,-16,19
20,-18,17
22,-21,20
26,-23,19
15,-22,21
13,-20,23
5,-19,24
-2,-19,24
-2,-12,25
-4,-6,22
-4,-2,25
-3,4,22
2,9,25
6,9,26
20,5,23
26,1,21
38,-1,19
47,0,16
57,-4,11
62,-5,11
65,-5,9
66,-5,10
63,-7,11
60,-9,11
54,-10,5
45,-11,5
38,-11,2
29,-16,2
20,-20,-2
14,-19,-2
6,-16,-2
2,-15,-1
-2,-12,-1
-3,-8,0
-4,-8,0
-5,-6,0
1,-4,0
3,-2,0
7,-1,-3
11,-1,0
16,0,-4
17,0,-4
19,0,-4
19,0,-6
20,0,-9
14,-1,-14
13,-2,-17
14,-4,-23
9,-2,-29
5,-5,-30
1,-5,-34
-3,-3,-33
-6,-2,-34
-9,-3,-35
-10,-4,-31
-12,-3,-35
-14,-3,-33
-12,4,-34
-11,4,-34
-14,9,-32
-14,13,-34
-14,9,-29
-16,10,-29
-18,15,-24
-25,13,-16
-29,20,-12
-27,20,-13
-26,18,-9
-18,19,-12
-10,17,-13
-1,21,-12
4,20,-16
13,18,-20
16,17,-22
20,12,-26
22,6,-27
27,2,-29
25,2,-33
28,-2,-35
27,-3,-31
25,1,-35
25,-1,-34
24,-1,-32
20,0,-30
18,-2,-27
17,2,-21
13,6,-16
7,8,-18
6,13,-10
3,18,-7
-3,25,-6
-3,32,0
-6,39,0
-7,38,3
-6,35,1
-3,27,2
-5,15,4
-5,5,6
-9,-2,4
-5,-6,4
-9,-7,8
-11,-1,9
-12,3,10
-14,12,13
-12,15,11
-11,17,11
-6,20,8
-2,18,7
3,20,5
5,21,7
9,21,6
17,20,7
18,17,6
20,13,3
23,10,3
22,5,-1
28,0,-10
24,-5,-11
23,-9,-12
18,-6,-11
16,-5,-12
10,-5,-12
10,-4,-8
6,0,-6
4,1,-3
2,6,1
0,9,0
-3,12,1
-3,14,-2
-5,13,0
-5,17,0
-6,20,-1
-5,18,-2
-6,18,-5
-8,20,-4
-6,15,-1
-8,20,-4
-7,16,-3
-7,16,-3
-6,17,-6
-4,19,-3
-4,14,-6
-6,12,-3
-4,5,-4
2,1,-8
1,-4,-7
5,-3,-5
4,-3,-9
5,1,-8
5,2,-8
9,4,-11
12,7,-12
13,11,-8
13,15,-9
10,16,-5
7,20,-5
3,21,-3
-1,19,0
-4,17,1
-10,17,7
-14,17,6
-12,19,6
-9,20,3
-4,18,0
4,22,-4
12,22,-5
22,21,-6
30,19,-6
37,19,-10
40,16,-10
42,14,-6
45,12,-9
39,10,-8
36,12,-8
32,7,-6
29,6,-6
22,8,-8
20,5,-5
14,1,-3
8,-3,-1
6,-5,2
0,-10,2
-3,-9,4
-7,-8,0
-8,-11,2
-7,-11,3
-9,-7,3
-9,-4,7
-14,0,3
-9,3,3
-12,5,3
-12,10,1
-13,12,3
-12,14,7
-15,11,2
-18,13,3
-16,13,0
-16,10,0
-18,13,4
-20,14,4
-19,13,0
-17,15,-1
-12,14,0
-10,14,-2
-8,13,-3
-4,10,-3
0,7,-4
5,8,-4
10,7,-6
12,2,-6
14,3,-6
17,0,0
19,-4,-3
19,-5,-3
21,-8,-3
22,-8,-1
20,-7,-3
21,-9,-5
21,-7,-6
17,-4,-8
13,0,-4
13,3,-7
12,2,-7
12,5,-8
10,8,-7
10,7,-8
8,11,-7
9,9,-7
9,10,-2
2,5,-3
3,7,-6
1,3,0
1,-2,1
0,0,2
-2,0,-1
-4,4,-2
0,3,3
-3,7,2
-1,4,-1
-1,4,-1
1,2,0
0,4,-3
1,1,-2
1,6,-3
3,6,-4
1,5,-8
6,8,-4
4,5,-8
2,6,-8
0,5,-7
3,3,-7
5,0,-7
7,-4,-6
7,-4,-4
8,-8,-2
2,-5,-3
-4,-9,2
-6,-7,2
-9,-5,1
-14,-2,7
-16,1,9
-18,6,8
-14,15,8
-11,21,5
0,25,7
8,27,0
17,27,-2
28,21,-6
36,19,-11
42,9,-12
46,5,-15
43,-5,-15
43,-9,-11
37,-15,-10
31,-20,-8
30,-23,-11
19,-19,-8
15,-22,-5
8,-21,-5
6,-20,-4
1,-20,-1
-6,-17,0
-11,-16,4
-16,-10,4
-15,-9,5
-20,-6,3
-21,-1,2
-20,-1,2
-23,1,-1
-21,1,-3
-21,3,-1
-17,2,-5
-19,2,-5
-19,2,-1
-20,0,-1
-19,-1,0
-20,-3,2
-21,-5,3
-18,-3,4
-20,-6,4
-19,-8,4
-17,-6,7
-16,-8,7
-12,-10,7
-3,-12,7
4,-12,2
7,-11,2
15,-13,2
16,-15,1
23,-15,0
24,-18,-4
29,-19,-4
31,-17,-3
31,-16,-5
31,-17,-4
29,-12,-6
30,-13,-2
27,-9,0
24,-5,1
21,-4,4
20,-4,2
16,-2,3
13,-4,3
14,0,5
10,-1,5
6,1,3
11,-4,5
12,-2,3
11,-5,5
12,-6,4
12,-5,3
10,-6,0
9,-3,0
8,-5,-2
9,-5,-2
9,-6,0
10,-6,2
6,-3,0
6,-6,1
8,-6,-2
7,-5,2
1,-1,0
2,-2,0
1,0,0
3,0,0
0,2,1
0,3,0
0,0,3
1,-1,3
2,-2,3
0,-5,2
0,-3,3
1,-5,2
1,-5,5
-1,-7,4
-2,-6,1
-2,-8,5
-3,-8,1
-2,-8,1
2,-5,4
4,-6,0
8,-8,1
10,-9,-2
15,-7,-3
17,-8,-2
14,-6,-4
12,-3,-3
4,-2,0
1,2,0
-3,3,0
-10,4,6
-18,9,8
-21,14,8
-21,17,10
-12,21,9
-1,21,5
8,22,3
18,17,1
28,14,0
33,5,-2
37,-1,-4
41,-10,-6
40,-17,-5
36,-25,-9
28,-27,-7
26,-29,-8
16,-32,-8
6,-27,-6
1,-23,-6
-9,-18,-3
-17,-11,0
-23,-8,5
-26,-1,3
-32,5,2
-34,8,5
-32,7,7
-35,13,6
-29,14,7
-27,15,7
-25,14,7
-19,13,6
-15,10,5
-11,6,5
-9,3,4
-9,-4,2
-5,-7,1
-7,-12,4
-8,-15,3
-11,-16,5
-11,-16,5
-12,-14,7
-11,-11,11
-9,-9,9
-2,-5,6
2,-4,4
9,-4,6
15,0,6
21,-1,3
21,3,4
26,4,3
30,8,3
30,5,2
30,5,4
33,4,2
27,3,0
28,1,-4
23,1,2
21,-1,4
18,1,0
18,1,2
18,3,2
13,7,2
15,7,3
14,5,6
14,8,4
15,6,9
11,6,6
14,4,1
11,2,3
10,1,4
15,0,3
14,0,6
12,0,4
8,0,0
9,-4,3
8,0,-2
8,0,0
5,-1,-4
6,0,-2
5,-2,0
6,-3,-3
5,-4,-3
0,0,-2
3,-1,1
0,-2,1
2,-1,0
0,1,0
0,2,3
-1,3,2
0,1,3
-1,5,3
0,5,1
0,2,4
0,6,3
0,3,3
0,3,6
3,3,8
7,0,10
7,-2,9
6,-2,11
8,-2,9
10,-1,11
12,0,9
15,4,8
16,2,7
16,1,9
18,3,5
21,2,5
24,3,5
26,1,10
28,4,6
31,2,6
31,3,0
30,4,0
25,3,4
16,6,1
11,7,3
3,9,6
-5,11,11
-11,12,13
-11,13,15
-5,17,11
2,18,9
11,21,4
24,18,5
30,17,1
37,13,1
36,7,0
40,2,-3
41,-6,-3
33,-7,-4
30,-14,-6
24,-14,-5
15,-16,-3
6,-14,-5
4,-10,-2
-4,-7,-4
-9,-4,0
-16,4,1
-23,7,3
-23,12,6
-29,17,7
-30,18,9
-27,18,9
-29,21,10
-25,19,9
-21,19,6
-17,14,6
-13,9,6
-7,3,3
-3,2,2
-2,-5,2
0,-10,1
0,-12,0
-2,-17,0
-3,-16,1
-3,-17,1
-3,-13,3
-3,-8,5
-2,-5,7
0,-2,6
6,3,4
9,1,3
14,4,1
17,5,3
19,3,-2
24,5,-4
23,6,-5
20,5,-11
22,0,-14
18,0,-17
17,0,-21
14,-1,-24
9,-2,-20
4,-4,-16
-8,-2,-13
-17,-1,-10
-29,0,-2
-38,1,3
-50,0,5
-55,0,8
-57,4,11
-65,6,11
-60,5,10
-60,5,9
-54,6,7
-44,3,9
-35,1,7
-23,-2,8
-15,-8,3
-5,-9,0
2,-10,0
10,-8,-1
16,-9,-2
17,-9,-6
19,-10,-7
17,-13,-6
18,-13,-3
14,-13,-2
11,-11,2
9,-8,2
4,-8,0
4,-9,8
3,-8,11
4,-5,14
6,-7,13
7,-4,15
10,-5,16
15,-4,14
18,-1,13
22,-3,16
27,0,15
26,2,13
29,2,10
32,-2,12
31,-3,9
30,-2,7
27,-3,8
26,-5,8
24,-2,2
24,-2,2
17,1,1
8,3,0
3,5,3
-3,6,2
-13,9,3
-19,10,9
-29,12,14
-32,14,18
-31,18,17
-28,20,14
-17,18,14
-5,18,6
7,18,4
17,18,4
23,13,2
32,11,-3
36,4,-8
35,0,-8
35,-4,-13
30,-9,-17
25,-11,-18
19,-15,-18
9,-14,-20
1,-13,-21
-7,-10,-19
-17,-8,-14
-23,-8,-14
-32,-6,-9
-34,-5,-6
-38,-4,-3
-42,0,0
-46,1,5
-43,3,4
-42,5,5
-38,10,7
-34,10,4
-32,9,5
-26,10,1
-22,10,0
-17,7,-4
-12,6,0
-10,0,-4
-10,-1,-3
-8,-3,-5
-8,-6,-3
-6,-7,-2
-7,-9,-3
-7,-9,-5
-5,-9,1
-1,-3,1
5,-2,0
9,-1,0
14,0,1
19,6,0
23,5,0
26,7,-2
25,4,-3
27,7,-4
29,3,-6
29,2,-7
27,1,-10
27,-1,-12
21,0,-9
18,-2,-11
15,-3,-12
9,-2,-11
9,-1,-11
5,-1,-10
3,-1,-8
-1,0,-9
-1,2,-6
-5,1,-7
-6,0,-4
-8,3,-6
-7,0,-5
-12,4,-8
-12,5,-7
-12,4,-6
-14,3,-9
-14,2,-9
-14,1,-11
-13,0,-10
-9,1,-8
-12,2,-11
-11,3,-11
-8,0,-10
-10,2,-11
-9,0,-8
-8,3,-9
-6,2,-11
-4,0,-8
-5,2,-6
-4,3,-6
-4,2,-7
-4,3,-8
-4,0,-6
-5,2,-2
-3,3,-3
-4,2,-1
-5,2,-2
-2,2,-3
-2,1,0
-1,1,0
0,3,-1
0,3,-2
0,0,-2
7,2,-4
4,0,-3
8,3,-4
1,3,-3
1,8,2
0,5,-3
-2,6,-1
-7,8,0
-11,12,2
-12,15,3
-15,21,7
-9,26,6
-1,26,5
4,27,3
11,26,2
21,20,0
28,17,-2
34,8,-6
34,9,-7
35,-1,-9
31,-3,-12
25,-5,-11
20,-9,-13
16,-10,-12
11,-12,-11
3,-11,-12
0,-9,-6
-5,-5,-5
-6,-2,0
-13,-3,-1
-16,-2,1
-17,-2,3
-19,0,1
-19,-2,3
-19,2,2
-19,0,0
-18,0,0
-23,2,2
-21,1,1
-21,0,-2
-21,3,0
-21,2,-1
-22,5,-1
-19,5,0
-19,5,1
-16,3,0
-15,6,2
-13,5,0
-12,6,0
-9,5,3
-7,5,0
-5,5,2
0,5,1
5,3,-2
11,4,1
14,4,-3
17,4,-4
21,2,-4
23,4,-4
23,3,-3
24,0,-6
24,0,-5
21,-1,-3
22,0,-6
18,-1,-10
19,-1,-4
15,0,-5
14,0,-5
14,0,-2
10,1,-1
8,4,-3
6,2,-2
3,4,-3
2,1,-6
0,5,-1
-3,5,-2
-2,7,-5
-4,7,-4
-6,7,-4
-8,7,-2
-7,7,-4
-6,6,-4
-8,6,-3
-6,2,-1
-6,1,-2
-9,1,-2
-4,2,-2
-2,0,-3
-1,2,0
0,5,-4
-4,4,-1
-1,2,-5
2,4,-1
2,-1,-2
0,2,-2
-1,0,-1
-1,2,1
-1,1,1
-2,-2,1
-4,1,1
-2,0,2
-2,1,0
-3,-1,1
-3,0,2
-2,0,2
-1,2,4
3,1,4
3,2,3
3,5,3
5,7,5
8,7,3
7,5,1
8,8,1
7,7,-1
8,3,-1
7,1,-1
11,1,-1
6,-1,0
7,-2,-1
7,-1,-4
9,-3,-5
9,-2,-3
9,-2,-5
12,-2,-2
12,0,-4
12,3,-5
12,1,-6
5,5,-2
-1,3,1
-7,5,-1
-14,7,-1
-15,11,2
-21,12,2
-22,15,4
-19,20,1
-17,21,2
-11,22,0
-2,22,0
7,20,-1
15,19,-3
20,12,-6
29,9,-9
31,1,-7
30,-6,-11
28,-6,-10
26,-12,-9
16,-12,-10
11,-15,-5
5,-9,-3
3,-13,-2
-5,-10,0
-11,-9,1
-11,-10,6
-16,-5,7
-12,-4,10
-15,-3,6
-14,-5,5
-10,0,4
-8,0,1
-5,0,3
-6,2,-1
-6,3,-3
-5,1,-3
-6,5,-3
-8,7,-3
-10,6,-5
-5,3,-1
-9,2,-1
-10,4,0
-10,4,0
-12,4,0
-15,4,4
-12,2,4
-17,0,4
-14,1,5
-13,2,7
-8,4,7
-6,4,4
-2,9,2
0,10,0
5,12,-2
7,12,-3
9,11,-1
12,13,-3
14,10,-4
12,7,-5
14,3,-5
14,3,-7
14,-1,-6
12,-1,-5
12,-3,-5
11,-6,-3
9,-6,-2
5,-8,0
3,-5,2
4,-6,0
3,-4,0
1,1,0
0,-3,0
-3,0,0
-2,-2,-1
-6,-1,1
1,-2,-2
-2,-2,-3
-2,-2,-2
-1,-3,-2
1,-9,1
0,-4,-3
0,-4,-2
1,-3,-2
1,-2,-1
3,-3,-5
5,-2,-5
6,-4,-4
6,-5,-2
5,-4,-5
2,-3,-5
3,-2,-5
1,-1,-1
2,-3,0
1,-5,-2
1,-6,0
0,-7,-3
-1,-11,-2
-1,-5,1
-3,-6,0
-2,-7,1
-4,-8,3
-2,-6,5
-4,-3,3
-2,-6,4
0,-4,4
1,-2,2
0,-4,3
-1,0,0
2,-4,2
4,-3,0
4,0,3
1,-3,3
3,-1,0
2,-1,2
4,-1,3
3,-2,4
1,-2,0
4,-4,0
2,-4,1
1,0,2
4,-2,3
1,0,4
5,-2,4
3,-1,2
5,-2,2
3,-5,1
4,-3,4
5,-4,4
6,-6,0
5,-4,2
5,-5,1
3,-6,-1
4,-4,1
3,-4,2
5,-5,0
5,-3,0
7,-5,1
9,-5,0
8,-7,-2
11,-1,-3
8,-1,-6
5,2,-4
-5,4,-6
-8,2,-4
-12,4,-4
-21,6,-1
-30,8,4
-29,11,9
-25,16,6
-17,16,3
-4,19,0
7,17,-1
19,13,-1
25,9,-4
32,3,-6
33,-6,-7
37,-9,-5
33,-21,-4
25,-22,-5
20,-23,-5
14,-28,-6
9,-26,-2
1,-25,-1
-4,-19,0
-5,-15,1
-10,-11,3
-13,-4,2
-18,1,4
-15,4,4
-16,7,4
-13,11,4
-14,11,4
-11,11,7
-11,10,4
-10,11,4
-10,8,5
-8,7,0
-6,1,3
-4,0,1
-2,-6,1
-3,-5,2
-4,-7,2
-5,-9,4
-8,-7,5
-9,-8,7
-12,-3,5
-11,-2,7
-10,0,10
-7,6,9
-6,10,9
-2,10,8
4,15,5
10,20,3
13,19,-1
16,18,-3
17,14,-2
17,11,-5
18,7,-3
17,2,-2
19,-2,-2
17,-8,0
16,-8,3
11,-9,4
13,-7,4
9,-5,8
7,0,7
3,8,5
5,8,5
6,10,3
1,12,-1
3,13,0
4,14,-5
5,10,-5
2,4,-4
3,4,-5
4,1,-1
6,-1,-4
6,-1,-4
4,-4,-3
7,-7,-1
6,-6,0
8,-4,0
9,-8,-2
7,-7,-1
7,-5,-5
9,-6,-5
7,-2,-3
7,0,-1
9,4,-5
8,2,-4
7,6,-3
5,9,0
5,8,-2
5,14,-4
5,13,-2
4,15,-3
1,15,-2
1,16,-2
0,16,-3
-2,15,-4
0,11,-3
-2,11,-1
-1,10,-3
-2,11,-4
-4,13,1
-2,6,1
-3,6,3
-2,10,4
0,7,8
1,6,6
2,4,9
6,4,6
7,0,5
8,2,4
7,3,4
11,0,6
8,0,5
11,1,2
15,4,1
16,0,1
17,-1,0
17,-4,0
17,-4,4
19,-3,1
21,-3,3
21,-1,0
21,4,-2
16,6,0
9,7,-2
4,10,0
-1,7,2
-8,7,10
-15,6,13
-17,11,13
-19,13,14
-10,15,13
1,14,7
10,14,6
21,14,3
30,12,0
36,7,-4
39,2,-1
37,-1,-3
35,-10,-4
35,-11,-3
29,-16,-5
20,-16,-3
13,-14,-3
7,-15,2
4,-10,0
-1,-4,4
-6,0,1
-7,6,4
-12,11,7
-12,15,5
-15,19,7
-13,17,8
-12,17,10
-13,15,10
-8,15,8
-10,11,4
-6,8,3
-7,5,0
-4,4,0
-1,-2,-1
0,-4,-2
-2,-7,-6
-5,-8,-4
-9,-9,-8
-8,-10,-3
-14,-9,-2
-15,-9,-1
-15,-5,1
-16,-1,3
-13,2,6
-11,7,5
-5,7,6
0,13,5
6,8,2
10,14,1
16,10,1
19,7,2
20,5,0
21,0,-1
21,1,-1
20,-3,-3
20,-3,-4
20,-3,-1
16,-6,1
14,-6,-2
12,-5,0
9,0,1
6,-2,2
4,2,2
2,3,2
3,7,4
2,6,7
3,7,4
3,7,2
3,6,2
4,5,1
7,1,2
5,4,-1
7,0,-2
7,0,0
9,0,-1
10,-2,-1
10,-5,-2
10,-5,-1
12,-8,-3
7,-4,-4
6,-9,-1
7,-8,-1
6,-4,1
2,-2,0
3,-1,4
3,-1,2
-2,1,1
2,2,5
-2,3,5
-1,3,4
-2,4,6
-4,3,6
0,4,7
0,4,6
0,5,3
1,4,6
1,1,6
2,0,5
5,2,4
3,1,4
5,0,5
5,-2,6
7,-1,2
8,1,6
7,0,3
13,-2,3
12,0,0
15,-1,3
12,-1,2
14,-3,-1
14,-2,-1
15,-4,-4
10,-1,-4
5,0,-3
0,2,-1
-4,2,0
-10,4,5
-18,7,6
-24,10,10
-28,10,17
-24,11,14
-19,15,11
-10,16,11
1,15,8
11,11,5
19,8,7
28,2,-1
32,-5,-1
33,-8,0
34,-16,-4
33,-22,-4
28,-25,-7
24,-25,-5
18,-25,-4
12,-22,-9
9,-21,-7
3,-18,-7
-1,-14,-3
-6,-8,-1
-11,-4,-1
-17,0,1
-17,2,3
-20,5,3
-23,3,5
-25,9,4
-27,11,2
-28,10,3
-26,11,2
-23,6,4
-21,2,6
-20,0,3
-15,-1,0
-13,-4,0
-10,-7,3
-10,-10,-1
-7,-10,-2
-8,-9,1
-7,-12,0
-4,-13,-5
-3,-10,0
-4,-11,2
-3,-6,2
-1,-5,1
2,-1,2
4,0,-1
9,2,1
8,4,-2
12,3,0
13,4,-4
13,1,-6
15,3,-3
17,1,-6
15,0,-5
14,1,-5
14,0,-6
11,-1,-4
11,0,-7
9,2,-9
10,2,-12
4,2,-8
2,3,-7
1,3,-4
-1,4,-5
-1,3,-6
-2,5,-8
-6,5,-7
-6,6,-6
-7,3,-3
-8,4,-6
-9,3,-6
-12,1,-8
-12,1,-6
-12,-2,-9
-12,0,-9
-14,0,-9
-14,-1,-11
-12,0,-9
-9,1,-8
-11,1,-7
-9,1,-8
-12,1,-10
-9,4,-10
-6,3,-8
-8,4,-8
-9,1,-4
-7,2,-5
-7,0,-8
-9,1,-5
-11,2,-6
-10,1,-7
-9,1,-5
-7,0,-3
-6,1,-3
-7,0,-3
-3,1,0
-1,-1,0
-1,-3,0
1,-1,-1
0,-4,0
2,-3,-3
7,-2,-1
8,-2,-3
7,-4,-7
11,-3,-3
11,-4,-4
13,-3,-2
15,-2,-5
14,1,-7
10,2,-10
7,3,-6
1,6,-7
-3,9,-8
-8,6,-3
-17,13,3
-21,11,4
-24,18,6
-23,17,8
-21,20,9
-11,17,8
-6,19,5
4,15,2
9,13,-1
19,8,-3
25,2,-3
24,-3,-5
27,-5,-7
27,-9,-7
23,-8,-11
22,-12,-9
19,-12,-10
11,-11,-7
8,-8,-8
4,-6,-6
-2,-2,-9
-6,-1,-3
-9,-2,0
-11,-3,2
-14,0,3
-16,0,3
-19,2,2
-19,0,3
-22,4,2
-19,3,0
-18,5,3
-19,3,0
-21,0,0
-21,1,-3
-22,2,-2
-16,2,-2
-17,3,0
-15,1,1
-13,0,2
-14,0,0
-8,-2,0
-8,-3,0
-9,0,0
-7,0,2
-9,5,2
-7,7,1
-4,8,2
0,10,0
2,7,0
8,9,-1
9,6,0
13,6,-1
11,4,-1
16,-3,0
18,-1,0
20,-1,-3
19,-2,-3
19,-2,0
18,0,-3
20,0,-4
18,1,-4
14,3,-6
13,-1,-2
11,-2,-1
8,0,0
7,0,3
3,0,-1
1,1,1
0,2,1
0,5,2
-2,5,-2
-1,6,0
-3,7,0
-4,5,-1
-5,8,-1
-8,3,-1
-6,5,-1
-5,2,0
-5,3,-6
-6,3,-2
-5,1,-1
-5,0,-2
-5,1,-2
-2,2,-2
-2,3,0
-4,1,-2
-4,0,-3
-4,2,-1
-2,3,0
-2,4,0
-3,5,-3
-3,4,0
-1,6,0
-4,5,0
-5,4,-2
-4,6,1
-3,1,0
0,2,2
0,0,0
-1,0,2
1,-2,3
2,-2,0
2,0,0
5,0,2
3,0,0
5,0,0
3,1,-3
6,1,0
5,2,-2
6,0,-5
5,-1,0
9,-3,-2
11,-2,-1
12,-1,-3
11,-1,-3
9,0,-4
6,2,-5
-1,4,-1
-5,4,0
-12,5,-1
-16,6,-1
-20,5,3
-23,11,3
-21,11,3
-21,16,2
-15,16,3
-7,18,1
1,18,1
10,19,-1
18,14,-6
22,10,-8
28,5,-9
26,-1,-9
27,-6,-12
24,-11,-11
21,-12,-10
14,-13,-9
6,-15,-7
3,-13,-6
-2,-11,-2
-6,-11,-3
-8,-11,2
-13,-9,1
-15,-6,4
-18,-5,3
-18,-5,5
-17,-5,3
-16,-2,2
-15,0,-3
-13,-2,-2
-15,-3,-5
-12,-4,-4
-16,-3,-6
-18,-2,-6
-15,-1,-3
-17,-5,-5
-15,-1,0
-14,-1,-6
-14,-2,0
-16,-1,1
-15,0,0
-13,-3,0
-13,-2,3
-11,-3,3
-13,-2,2
-11,-1,5
-10,-1,3
-5,-2,3
-2,0,0
2,0,-2
5,0,-2
9,-1,-2
12,-3,-1
13,0,0
18,-6,-5
17,-7,-1
20,-10,-3
21,-10,-1
18,-12,-1
20,-13,-4
19,-13,-5
16,-11,-5
14,-10,-3
10,-9,-3
5,-3,-2
4,0,-2
4,0,0
1,0,-2
0,0,0
4,0,0
-1,1,3
2,0,1
-1,-3,3
-1,-3,1
0,-4,2
-1,-4,0
-2,-4,0
-3,-8,0
0,-6,0
0,-3,0
-2,-5,0
0,-4,-1
-1,-4,-2
1,-2,2
2,-4,1
1,-7,1
2,-4,4
2,-5,5
2,-6,5
3,-8,2
2,-8,3
3,-8,0
3,-9,2
3,-7,1
3,-3,1
1,-2,2
2,-2,7
2,-3,5
5,-4,5
4,-3,4
7,-2,4
4,0,4
6,0,4
6,-2,6
11,0,6
9,-3,6
8,-2,8
10,-5,5
12,-5,7
11,-4,4
10,-2,5
7,-1,6
10,-3,3
11,-3,4
9,-2,4
8,-3,5
11,-6,5
11,-7,4
12,-4,1
14,-6,3
11,-3,0
14,-4,0
17,-4,-1
15,-1,-1
16,2,-5
9,3,-6
3,3,-5
-5,4,0
-12,5,1
-18,5,5
-23,6,10
-24,11,9
-21,11,9
-13,14,9
-3,14,7
8,15,4
18,14,1
29,10,2
33,3,0
38,0,0
37,-12,-3
34,-14,-3
32,-19,-5
25,-22,-4
18,-24,-4
8,-24,-6
4,-22,-2
-3,-14,-3
-6,-10,0
-11,-5,3
-15,2,4
-16,8,4
-19,11,6
-18,15,5
-20,15,5
-16,14,7
-16,14,5
-14,11,3
-12,10,6
-10,5,2
-5,0,0
-5,0,0
-2,-7,0
1,-6,0
1,-11,1
1,-11,2
-1,-9,2
-2,-8,1
-2,-5,4
-3,-8,3
-4,-3,4
-6,-1,4
-5,1,8
-5,1,9
1,8,6
5,6,8
10,11,6
16,13,3
20,11,5
22,7,2
23,5,5
21,5,2
21,2,1
23,2,1
21,-1,0
19,-3,3
16,-1,1
17,0,0
12,2,2
11,3,5
8,6,0
9,6,5
5,8,6
4,9,5
4,6,6
7,8,2
6,10,2
2,9,2
5,4,4
3,7,0
1,4,0
0,5,0
4,0,-1
2,1,1
3,-1,-3
1,-2,-2
3,-2,0
1,-1,-1
3,-1,-1
4,-3,-3
2,-3,-1
5,-1,-2
5,-1,-1
1,0,-3
0,-3,0
2,-1,-2
-1,0,-2
-1,-1,0
0,-3,1
-2,2,1
-2,3,1
-3,1,0
0,0,1
0,2,4
1,3,6
3,4,4
0,4,3
2,5,5
9,1,3
7,0,3
9,3,5
9,6,4
5,7,1
9,4,4
8,5,2
8,6,4
9,7,5
6,5,2
6,4,3
4,3,3
2,4,4
3,2,3
5,0,4
4,1,2
4,2,2
6,-2,1
10,-2,2
11,-3,2
13,-3,4
13,-4,5
14,-2,0
14,1,0
14,1,-3
9,4,-1
6,9,-1
1,10,-1
-5,11,1
-13,11,6
-17,11,11
-19,13,10
-14,14,10
-10,15,10
2,16,5
13,15,4
23,9,2
32,5,0
37,5,0
39,-2,-1
40,-8,0
35,-12,1
33,-12,0
27,-16,-1
22,-14,-1
16,-15,-3
9,-13,-1
4,-7,0
1,-4,3
-4,0,2
-6,6,3
-9,9,7
-8,10,9
-10,13,7
-11,17,5
-14,14,7
-13,12,5
-16,8,4
-14,6,2
-9,1,1
-9,0,2
-10,-4,0
-9,-6,-1
-8,-6,-5
-6,-7,-8
-6,-7,-7
-6,-12,-4
-8,-7,-5
-12,-4,-5
-14,-3,-5
-18,0,-1
-19,4,0
-19,8,2
-20,12,5
-17,9,5
-12,10,6
-11,11,0
-2,12,1
3,9,1
8,7,3
12,3,2
16,3,-3
15,0,0
19,-1,0
17,-4,0
20,-7,1
18,-7,4
17,-8,2
13,-6,4
12,-4,4
10,-5,5
7,0,3
8,1,6
12,0,3
9,3,0
12,5,0
11,10,-1
14,8,-2
16,14,-12
20,11,-15
28,15,-22
30,17,-29
32,12,-36
39,15,-45
44,9,-50
47,7,-58
48,7,-68
44,3,-73
42,-1,-77
32,-7,-81
21,-17,-88
5,-23,-90
-7,-32,-96
-31,-35,-100
-56,-42,-103
-80,-40,-107
-109,-40,-109
-140,-36,-113
-174,-31,-111
-200,-25,-111
-224,-19,-115
-244,-10,-107
-261,0,-102
-270,6,-94
-274,12,-86
-272,18,-74
-266,18,-56
-255,21,-47
-241,20,-28
-224,17,-15
-205,9,1
-187,8,15
-168,3,30
-150,-3,43
-136,-9,56
-122,-14,68
-115,-20,75
-107,-25,81
-106,-28,82
-107,-33,87
-108,-40,91
-110,-48,90
-116,-46,90
-119,-54,94
-123,-55,96
-126,-58,99
-132,-57,102
-132,-57,107
-137,-56,110
-144,-54,118
-145,-50,125
-144,-45,130
-144,-37,136
-141,-29,142
-141,-18,145
-134,-12,155
-130,-6,153
-127,-4,152
-130,-5,158
-149,-8,160
-178,-17,162
-217,-30,166
-262,-44,169
-312,-59,173
-359,-78,175
-407,-93,179
-441,-108,180
-470,-123,178
-489,-137,176
-497,-142,171
-498,-145,167
-492,-146,159
-479,-141,153
-455,-137,146
-432,-125,138
-401,-111,128
-367,-98,118
-330,-78,111
-287,-66,98
-251,-47,88
-212,-30,80
-172,-17,73
-132,-3,68
-93,6,60
-60,14,59
-21,17,57
8,27,50
42,29,53
70,34,55
98,33,56
122,34,56
146,36,61
164,29,67
180,30,68
191,28,68
203,31,73
210,30,75
213,29,75
214,32,77
208,32,78
202,32,75
194,31,72
185,31,71
177,31,69
166,31,67
160,29,61
155,34,60
151,30,54
140,29,51
134,29,47
127,29,41
119,30,33
115,30,30
107,33,21
97,35,18
87,31,15
77,36,10
70,40,2
57,40,-3
46,43,-7
39,40,-14
28,43,-20
24,44,-25
20,45,-31
20,47,-35
20,49,-43
23,49,-44
26,48,-48
29,52,-50
35,52,-52
36,49,-59
43,49,-60
47,49,-65
51,47,-69
55,43,-72
56,40,-78
60,42,-79
65,40,-81
67,32,-90
71,30,-90
72,22,-92
73,18,-96
73,15,-99
70,8,-98
68,2,-99
67,-4,-99
61,-9,-100
58,-10,-102
49,-14,-95
48,-16,-94
40,-16,-90
34,-13,-89
31,-12,-84
28,-9,-85
24,-7,-85
23,-5,-83
22,0,-83
19,5,-83
18,8,-84
17,11,-85
16,12,-86
16,14,-85
12,13,-90
15,17,-94
17,15,-92
17,15,-97
22,16,-99
25,15,-101
30,12,-105
31,11,-111
38,11,-110
41,12,-110
44,14,-114
50,16,-106
56,20,-107
60,21,-107
66,21,-101
71,25,-100
82,26,-96
92,24,-96
105,23,-96
120,21,-97
134,18,-99
151,14,-102
163,8,-101
175,2,-105
184,-5,-105
189,-12,-105
193,-17,-107
193,-25,-104
190,-28,-102
185,-32,-102
177,-29,-102
167,-33,-97
156,-30,-93
143,-25,-87
136,-22,-83
122,-17,-82
111,-13,-76
97,-7,-69
81,-1,-67
71,4,-63
58,11,-62
47,18,-60
34,24,-59
22,26,-56
10,33,-58
6,34,-56
-6,34,-55
-14,33,-54
-22,33,-57
-28,28,-56
-35,24,-56
-38,22,-54
-46,18,-51
-51,15,-48
-55,14,-50
-58,10,-51
-62,8,-49
-64,9,-53
-66,5,-51
-63,7,-53
-61,6,-51
-58,9,-52
-52,11,-51
-48,8,-53
-42,12,-53
-38,11,-51
-36,12,-51
-34,13,-47
-30,10,-48
-27,11,-43
-26,13,-42
-25,14,-38
-27,14,-37
-27,13,-36
-30,14,-30
-25,14,-27
-23,17,-24
-21,16,-23
-21,18,-17
-22,17,-10
-21,18,-7
-20,17,-1
-15,19,1
-15,16,7
-11,12,11
-10,13,13
-3,10,20
-1,11,18
1,12,21
8,13,23
13,15,21
17,10,23
27,5,25
28,0,25
34,-1,23
38,-3,26
44,-6,23
50,-9,24
50,-10,19
54,-11,21
49,-12,19
50,-13,21
43,-13,19
39,-11,21
33,-7,20
31,-1,23
29,-1,23
26,0,22
21,4,21
21,3,21
19,4,19
19,6,18
16,6,18
18,8,16
16,10,10
16,10,9
14,12,4
8,16,-2
5,18,-3
1,20,-5
-1,22,-9
-6,25,-9
-11,24,-9
-16,27,-9
-22,28,-11
-24,28,-12
-28,23,-9
-31,22,-9
-34,22,-7
-37,19,-7
-36,18,-3
-37,19,-1
-40,16,-4
-35,15,-7
-36,13,-5
-38,19,-11
-39,23,-13
-46,30,-14
-50,33,-19
-58,36,-20
-62,38,-15
-73,38,-8
-80,40,-7
-81,40,-3
-78,40,-4
-67,45,-3
-57,43,0
-49,41,-1
-34,40,-4
-24,35,-5
-12,31,-6
-6,25,-8
-3,20,-10
-1,13,-8
0,6,-9
-3,1,-10
-11,0,-14
-12,-2,-12
-18,-2,-15
-23,0,-17
-28,2,-15
-32,5,-13
-37,9,-12
-40,13,-13
-43,16,-12
-43,16,-13
-42,18,-15
-45,18,-17
-43,18,-15
-42,14,-18
-46,15,-20
-43,14,-20
-41,12,-20
-42,5,-19
-42,4,-19
-39,4,-19
-38,0,-17
-40,0,-20
-42,2,-16
-48,1,-14
-51,4,-10
-55,7,-10
-59,9,-7
-61,11,-6
-59,16,-2
-57,17,-1
-50,18,2
-39,16,-2
-30,18,0
-21,13,0
-12,19,1
-3,15,3
1,9,1
9,9,0
12,5,2
17,0,3
18,-2,3
17,-2,7
14,-2,7
8,-1,7
6,-1,9
2,-1,9
-4,0,15
-6,5,14
-8,3,16
-12,9,19
-15,12,15
-14,11,15
-14,14,11
-15,13,13
-16,17,11
-18,15,10
-21,15,9
-20,16,12
-23,17,9
-29,15,6
-29,16,6
-35,17,4
-35,20,3
-38,18,6
-39,26,6
-46,23,11
-46,24,14
-45,26,15
-41,26,20
-37,27,27
-34,26,29
-30,27,31
-24,26,36
-24,23,35
-15,22,36
-9,19,33
-3,16,31
2,12,32
9,14,27
15,9,27
24,7,27
31,4,24
40,5,22
51,-1,25
57,-1,24
65,-2,26
73,-5,24
72,-4,19
78,-2,15
81,-4,16
86,0,7
85,4,7
87,5,4
86,10,5
85,15,2
82,17,-2
81,16,-1
78,16,-4
75,15,-3
73,17,-4
66,18,-7
60,20,-5
57,20,-6
50,24,-6
42,27,-9
29,29,-11
19,30,-13
5,30,-11
-8,26,-6
-23,21,-1
-36,20,0
-47,15,4
-53,9,5
-52,5,3
-49,-2,1
-44,-7,-2
-33,-11,-6
-28,-14,-7
-27,-21,-6
-23,-25,-5
-22,-30,-8
-25,-31,-8
-30,-34,-6
-35,-34,-10
-43,-32,-7
-48,-29,-8
-53,-24,-6
-59,-20,-5
-61,-13,1
-63,-5,4
-66,-1,5
-69,0,12
-70,3,14
-71,6,17
-64,2,18
-62,2,15
-59,1,18
-51,-2,18
-44,-2,17
-38,-5,17
-29,-10,20
-19,-8,19
-12,-12,13
0,-17,17
7,-20,16
15,-21,10
18,-21,11
22,-21,12
19,-21,10
21,-27,12
21,-25,17
17,-25,19
17,-25,20
13,-28,19
15,-28,23
19,-28,22
24,-26,26
31,-25,29
44,-23,27
50,-24,24
58,-22,20
64,-23,19
69,-18,15
73,-21,17
77,-19,12
78,-17,9
79,-18,7
77,-15,4
77,-14,4
76,-11,3
72,-9,2
69,-8,0
68,-5,0
64,-5,-1
58,-7,-3
55,-2,-2
55,-2,0
51,0,-2
51,1,-5
51,2,-4
51,2,-9
46,1,-12
41,-2,-15
34,-6,-21
27,-7,-23
24,-12,-28
15,-16,-31
11,-22,-32
2,-26,-36
0,-28,-36
-7,-31,-37
-14,-27,-37
-19,-27,-38
-28,-24,-37
-34,-18,-41
-43,-16,-45
-46,-15,-40
-52,-11,-32
-50,-10,-21
-52,-8,-15
-51,-3,-6
-47,-2,3
-46,4,9
-45,7,20
-42,10,24
-34,16,31
-35,18,36
-28,24,42
-23,25,46
-19,30,50
-15,31,52
-7,32,57
2,33,59
12,32,64
18,28,69
27,28,77
38,25,82
52,19,87
63,17,91
78,12,94
91,10,99
104,5,102
119,2,107
133,0,104
142,2,102
151,1,103
155,7,101
158,9,96
159,13,94
162,14,92
163,19,91
163,24,92
162,25,92
168,29,89
173,28,85
182,30,83
193,34,81
202,34,75
217,36,75
227,36,73
239,33,71
246,31,67
254,28,68
260,25,65
267,23,65
266,20,61
270,11,63
270,15,63
268,13,59
260,6,59
252,9,56
242,5,54
232,6,52
224,3,50
213,3,49
202,2,46
194,4,48
184,4,49
177,7,49
164,9,54
155,8,58
145,14,63
129,11,68
113,16,70
100,13,68
84,14,71
72,11,72
59,10,69
47,4,71
33,4,68
20,1,67
7,0,64
-4,-1,62
-12,-1,56
-16,0,58
-26,-2,52
-33,4,49
-34,-2,46
-33,1,41
-35,3,36
-35,3,30
-34,6,26
-30,9,24
-34,10,18
-34,10,16
-35,11,14
-34,7,20
-37,4,18
-37,1,23
-35,-2,24
-32,-3,27
-26,-8,35
-23,-7,38
-16,-7,45
-12,-3,45
-3,-2,48
3,2,51
10,4,46
21,7,46
30,14,41
38,12,35
46,13,30
53,14,27
65,18,26
73,16,27
83,13,22
93,11,22
103,5,23
113,4,20
120,1,18
134,-2,22
144,-3,21
152,-4,22
162,-5,25
171,-5,25
179,-5,27
188,-5,28
192,0,32
197,0,37
204,0,40
209,2,45
210,1,50
211,4,53
205,4,54
200,4,53
192,6,48
184,9,41
172,7,40
161,9,31
148,9,26
135,13,15
122,9,5
110,8,-2
95,10,-12
85,6,-14
79,6,-19
74,7,-19
64,-1,-16
57,-1,-18
53,-5,-18
42,-8,-15
36,-13,-18
29,-19,-18
19,-24,-22
12,-27,-28
5,-32,-30
-4,-31,-41
-16,-33,-47
-22,-27,-56
-35,-16,-67
-46,-6,-70
-56,2,-76
-65,9,-79
-69,17,-76
-73,18,-69
-73,18,-59
-75,22,-47
-68,19,-40
-64,19,-34
-55,26,-31
-48,20,-29
-36,22,-27
-28,20,-30
-16,18,-33
-6,13,-40
4,11,-50
13,4,-55
19,-3,-62
25,-5,-71
27,-11,-76
31,-14,-78
30,-18,-81
30,-22,-80
26,-23,-81
23,-26,-74
19,-24,-68
9,-24,-63
3,-22,-60
0,-25,-49
-10,-24,-47
-15,-23,-36
-27,-20,-31
-32,-18,-26
-38,-18,-23
-44,-16,-16
-50,-13,-18
-53,-13,-14
-56,-10,-12
-59,-12,-14
-58,-10,-13
-54,-13,-14
-48,-13,-18
-42,-14,-24
-33,-20,-29
-25,-20,-41
-21,-24,-50
-17,-26,-57
-13,-25,-64
-9,-26,-78
-12,-22,-86
-19,-24,-92
-21,-25,-97
-30,-26,-97
-39,-24,-102
-47,-26,-103
-58,-27,-100
-75,-27,-92
-86,-32,-83
-104,-32,-76
-119,-36,-64
-135,-44,-49
-153,-41,-34
-168,-50,-17
-184,-54,-1
-199,-56,17
-206,-56,34
-213,-61,50
-223,-60,62
-227,-59,74
-226,-58,83
-226,-56,89
-226,-53,98
-221,-46,101
-214,-43,103
-210,-33,103
-202,-29,104
-193,-27,101
-179,-22,100
-167,-18,97
-151,-19,97
-137,-18,94
-125,-13,89
-114,-15,91
-102,-15,92
-92,-14,93
-84,-14,91
-73,-10,90
-65,-2,91
-47,3,88
-27,7,86
-2,14,83
23,23,74
46,33,67
71,42,57
86,51,49
96,58,47
102,65,41
101,65,42
90,63,41
74,62,36
60,57,39
41,48,40
19,43,43
-5,36,47
-23,29,48
-45,23,54
-59,17,50
-73,7,51
-83,6,48
-89,0,44
-92,-4,36
-92,-7,36
-87,-14,27
-80,-14,18
-68,-18,11
-58,-17,2
-43,-22,-6
-31,-20,-18
-17,-25,-23
-9,-29,-32
1,-32,-35
9,-36,-44
14,-41,-46
14,-44,-48
13,-46,-51
13,-53,-54
8,-56,-57
5,-57,-56
0,-58,-57
-14,-59,-60
-24,-58,-56
-32,-56,-57
-42,-51,-52
-47,-48,-52
-50,-42,-53
-52,-35,-52
-48,-30,-47
-47,-17,-49
-36,-8,-50
-20,1,-55
-4,4,-56
7,12,-57
21,8,-57
31,6,-61
41,-1,-59
44,-5,-60
47,-17,-64
40,-25,-62
32,-35,-68
24,-39,-71
14,-45,-67
-5,-49,-74
-16,-50,-75
-30,-47,-75
-42,-43,-75
-58,-38,-72
-66,-32,-74
-74,-21,-70
-85,-12,-66
-94,-4,-61
-94,3,-54
-94,8,-48
-94,12,-42
-90,14,-33
-86,12,-29
-78,10,-18
-69,7,-12
-61,4,-6
-57,-2,0
-49,-2,7
-40,-8,9
-29,-11,11
-26,-15,9
-17,-15,7
-12,-16,11
-6,-20,7
0,-19,10
4,-18,7
3,-15,4
8,-14,6
10,-14,3
15,-15,0
17,-16,-2
22,-16,-1
25,-18,-2
23,-14,-1
22,-21,4
27,-24,7
24,-25,8
22,-30,9
21,-29,14
21,-32,15
18,-32,14
20,-30,19
20,-27,17
19,-25,16
22,-24,19
22,-22,14
20,-20,10
24,-20,7
23,-16,3
27,-13,-2
27,-13,-8
27,-7,-13
26,-6,-17
21,-4,-14
12,-1,-20
8,-4,-19
-4,-3,-15
-13,-3,-10
-16,-8,-5
-25,-12,0
-32,-15,6
-36,-20,15
-40,-19,16
-42,-21,24
-43,-25,25
-46,-27,30
-40,-25,25
-39,-29,27
-37,-26,23
-31,-24,20
-29,-18,16
-24,-16,10
-18,-14,5
-17,-10,-1
-17,-6,-5
-13,-2,-9
-14,0,-8
-17,5,-12
-18,0,-11
-21,5,-14
-26,3,-7
-26,4,-9
-28,6,-4
-28,5,1
-33,4,2
-35,3,4
-39,5,6
-39,5,12
-40,4,11
-41,1,16
-41,4,15
-39,8,18
-33,8,19
-33,10,21
-26,8,21
-25,8,23
-17,10,22
-14,9,19
-8,6,21
-4,5,22
4,1,19
12,2,23
16,1,21
21,3,24
27,7,21
33,11,19
39,12,14
44,18,16
46,20,14
41,20,14
40,24,19
39,24,21
37,26,23
31,25,26
31,27,28
41,26,23
49,24,19
59,25,13
68,23,7
80,20,5
86,18,2
89,14,1
89,8,0
86,-1,-1
80,-6,-4
70,-9,0
59,-12,-5
48,-12,-6
36,-11,-7
24,-11,-5
18,-12,-8
8,-8,-6
3,-5,-8
-1,-5,-12
-4,2,-10
-9,5,-7
-9,4,-11
-12,10,-10
-12,7,-14
-16,11,-11
-14,9,-13
-15,5,-9
-10,4,-9
-11,0,-6
-9,1,-8
-7,-4,-10
-6,-6,-9
-6,-6,-3
-7,-8,-1
-12,-9,1
-14,-6,5
-20,-7,6
-23,-4,9
-25,-6,10
-28,-2,11
-27,0,12
-25,3,11
-23,8,10
-11,8,7
-3,9,5
6,10,3
16,8,-1
25,5,-1
33,0,0
38,0,2
45,-4,2
45,-3,2
46,-6,4
44,-7,3
39,-6,3
32,-8,6
24,-4,3
15,-4,2
11,2,-1
6,6,1
-1,9,3
-7,10,2
-13,11,4
-14,12,5
-18,10,2
-18,12,3
-14,8,9
-11,6,5
-9,2,2
-7,-2,9
-4,-6,7
-2,-11,4
2,-11,4
6,-14,3
8,-15,5
8,-16,4
11,-15,0
11,-15,-3
14,-15,-1
17,-12,-3
16,-13,-1
17,-10,-5
20,-9,-4
20,-7,-10
22,-3,-12
21,-3,-14
25,0,-17
26,-1,-17
25,1,-16
24,-1,-21
22,2,-22
21,0,-20
15,0,-27
13,-1,-23
13,3,-24
6,5,-24
5,1,-20
-1,4,-18
-1,0,-19
-5,1,-18
-6,5,-15
-10,3,-14
-15,-1,-13
-16,-1,-9
-19,1,-10
-21,1,-7
-21,0,-7
-22,3,-10
-23,2,-8
-24,2,-8
-22,1,-7
-24,1,-3
-22,-1,-3
-20,-1,0
-19,0,3
-19,1,7
-19,0,5
-19,5,5
-18,7,6
-22,8,7
-21,10,12
-26,11,15
-29,13,19
-31,20,21
-32,21,20
-23,20,17
-16,21,17
-5,22,15
3,21,15
14,21,10
21,18,12
29,15,13
34,12,8
39,9,11
43,4,9
42,0,6
45,-1,8
41,-1,10
38,-5,8
35,-6,7
32,-7,8
27,-5,6
24,-6,7
17,-2,9
16,-2,7
12,-4,8
11,-2,5
8,-3,10
8,0,7
7,0,6
4,1,6
3,6,5
4,7,5
2,10,0
3,11,0
3,7,-2
5,5,-1
4,4,-8
2,1,-5
0,4,-4
-3,2,-6
-5,0,-1
-4,-4,-1
-5,-3,-2
-6,-4,-3
-6,-5,-1
-8,-2,-1
-5,0,-2
-6,0,0
0,3,-3
0,5,-2
7,12,-3
10,14,-4
13,14,-1
14,12,-4
19,11,-3
19,9,-3
21,7,-4
23,3,-5
23,2,-8
22,0,-8
23,-1,-7
23,-3,-6
20,-4,-5
20,-5,-6
17,-2,-7
15,0,-4
13,-1,-2
11,2,-2
12,2,-2
8,4,-2
6,7,-3
5,6,-1
2,5,-3
2,8,-1
1,6,-1
0,6,-3
0,6,-1
2,5,-4
1,5,-1
0,2,-3
1,0,-5
1,-1,-4
3,0,-7
3,-2,-7
3,-1,-8
6,0,-8
4,-1,-11
5,0,-8
6,2,-6
3,3,-6
1,2,-8
-2,1,-6
-3,2,-7
-3,3,-5
-4,5,-3
-5,6,-1
-9,7,-4
-7,6,0
-7,10,-3
-7,5,0
-5,6,-1
-8,6,0
-7,6,-3
-7,5,0
-5,4,-1
-2,0,-1
-2,0,0
2,0,0
4,-3,-3
4,0,-7
6,0,-5
8,0,-5
7,0,-3
12,0,-4
11,0,-7
13,0,-7
13,0,-10
11,4,-7
9,4,-8
4,4,-6
-1,12,-8
-5,8,-7
-12,12,-1
-12,11,1
-17,16,7
-21,15,8
-18,18,13
-15,18,11
-7,17,5
-3,18,7
6,19,5
13,15,1
20,14,-1
25,9,-3
31,7,-6
31,3,-7
31,1,-11
23,1,-10
20,-1,-12
16,-1,-9
13,-3,-5
10,-4,-3
3,-6,0
-2,-3,-1
-2,-3,6
-7,-3,5
-9,-4,4
-9,-3,6
-9,-4,3
-11,-3,3
-10,-8,4
-9,-8,4
-8,-7,0
-6,-7,0
-9,-5,-3
-9,-6,0
-11,-1,1
-13,-1,3
-10,0,4
-12,2,5
-11,4,3
-11,4,3
-12,5,4
-11,5,6
-10,4,5
-9,4,7
-5,1,10
-7,1,7
-6,5,9
0,3,6
0,0,6
6,3,4
10,2,3
15,2,-2
19,2,-4
22,0,-4
20,0,-7
22,0,-6
20,0,-9
21,1,-10
18,0,-8
16,0,-9
13,0,-9
14,0,-8
12,-2,-10
9,-1,-8
8,-4,-6
6,-2,-7
4,0,-7
5,-2,-6
0,-1,-6
1,0,-5
-1,0,-7
-4,0,-6
-5,-1,-8
-11,-2,-11
-11,-5,-11
-12,-2,-12
-14,-6,-10
-17,-8,-15
-15,-10,-11
-16,-10,-12
-15,-11,-11
-15,-13,-8
-16,-6,-10
-14,-9,-3
-15,-7,-3
-15,-6,-1
-12,-4,2
-13,-2,2
-13,4,5
-13,4,5
-8,4,6
-11,5,8
-10,5,10
-5,2,12
1,5,14
2,1,15
6,0,16
8,-8,18
12,-5,18
15,-9,21
14,-9,20
19,-8,16
18,-10,16
22,-6,17
21,-3,12
21,-6,13
21,-3,14
21,0,10
23,2,13
24,4,8
20,4,8
23,6,8
23,3,5
20,2,3
18,-3,0
17,0,-1
11,-5,-2
13,-7,-3
10,-8,-8
10,-11,-8
4,-10,-10
3,-12,-11
2,-10,-12
1,-9,-15
0,-8,-15
-2,-3,-15
-4,-1,-17
-9,0,-20
-16,0,-18
-20,1,-17
-27,5,-14
-36,5,-12
-43,6,-11
-45,5,-1
-46,11,1
-42,15,3
-36,15,7
-24,18,0
-13,20,3
-7,19,6
1,17,5
11,10,7
17,8,10
20,0,10
18,-3,15
22,-11,16
18,-17,14
14,-18,17
12,-23,15
6,-22,16
6,-23,15
4,-19,19
0,-16,19
0,-9,20
2,-9,18
0,-6,17
2,-3,13
5,1,17
3,5,15
5,9,16
5,13,15
5,11,17
6,12,18
7,10,19
4,10,19
5,7,21
4,5,19
2,3,18
2,0,17
2,-1,16
-2,-3,16
0,-3,15
-6,0,16
-8,-6,13
-7,-5,11
-8,-4,12
-7,-5,11
-5,-2,8
-4,-1,7
1,0,9
3,4,5
9,5,6
14,9,7
14,7,10
15,7,6
16,3,7
15,3,7
14,2,5
10,2,4
10,-1,6
6,1,5
3,2,3
3,1,2
1,1,6
5,3,5
4,3,2
4,2,1
6,2,2
8,1,3
10,1,3
12,1,3
13,1,0
12,0,1
13,1,1
15,1,3
14,-3,1
12,0,3
14,-1,6
12,-1,5
11,-2,3
9,-1,2
6,-1,2
7,-1,4
8,-1,4
10,2,0
9,0,2
12,0,3
16,2,3
11,5,1
15,5,3
14,6,3
14,5,2
13,10,2
15,3,2
14,5,3
15,6,4
14,4,1
17,4,3
16,3,1
16,3,1
15,1,2
16,1,0
10,0,-2
12,-3,0
11,-3,3
8,-1,-1
7,-3,-2
8,0,-1
8,0,-1
6,3,-2
7,1,-5
6,3,-2
10,1,0
9,3,-3
8,-2,3
10,-2,4
7,0,0
10,1,5
11,-1,4
13,-1,4
15,-3,3
18,-3,7
18,-4,6
18,-4,5
18,-4,7
21,-4,6
23,-2,0
26,0,-1
26,3,0
22,6,-1
18,7,-1
15,7,-2
7,8,0
2,4,7
-3,11,10
-6,7,13
-3,9,15
3,11,8
12,11,6
23,10,3
29,9,0
37,5,0
37,0,-2
39,-3,-2
37,-6,-4
27,-10,-2
21,-17,0
13,-15,0
5,-16,1
-5,-18,2
-14,-14,0
-22,-13,7
-25,-9,7
-28,-5,9
-30,-3,8
-30,2,11
-24,4,11
-22,6,12
-19,6,12
-13,8,11
-8,6,10
-4,4,11
0,5,12
5,2,11
9,0,11
13,-4,8
18,-6,6
20,-8,3
22,-12,1
23,-9,0
24,-14,-3
17,-13,0
16,-13,4
13,-11,10
6,-12,11
4,-7,16
1,-4,16
-3,0,19
-4,3,20
-3,6,18
-3,5,20
0,4,16
7,5,14
10,5,13
11,5,11
16,8,10
17,6,8
16,6,7
18,5,8
17,2,2
17,2,3
16,0,1
13,-4,3
11,-6,0
9,-8,0
5,-7,-2
4,-7,-1
0,-3,-1
-1,-2,0
-4,-2,0
-5,0,-2
-5,-3,-1
-6,-4,1
-7,-3,1
-4,-1,0
-7,1,-3
-5,-1,-3
-3,-3,0
-1,-1,-3
-1,-1,-3
1,-3,-4
0,-4,-8
1,-8,-4
8,-6,-6
6,-5,-6
12,-1,-5
10,13,-4
16,7,-2
15,1,-5
18,-2,-6
17,-2,-9
18,2,-12
16,4,-13
17,4,-14
11,9,-11
14,9,-9
12,5,-6
8,6,-5
8,12,-4
4,10,-6
1,9,-6
3,10,-2
4,8,-2
2,10,-1
0,9,-4
1,9,0
1,6,0
0,4,0
4,2,0
4,1,-1
3,7,-3
5,6,-7
2,2,-5
7,4,-6
7,1,-7
5,2,-10
5,4,-12
8,3,-16
5,3,-17
6,-4,-13
5,-1,-14
5,-4,-14
5,1,-9
2,10,-11
2,15,-11
0,18,-6
-2,22,-4
-7,24,-1
-9,24,0
-15,29,3
-19,26,5
-20,29,9
-22,32,7
-22,30,9
-20,27,8
-13,22,3
-4,21,-2
3,16,-9
12,15,-9
16,15,-13
22,13,-13
20,12,-17
22,6,-15
19,3,-16
17,0,-12
11,0,-7
6,0,-8
1,2,0
-4,2,2
-7,1,3
-8,3,4
-13,4,7
-17,5,8
-14,8,5
-17,11,4
-16,11,0
-15,13,0
-16,15,0
-17,14,-4
-13,16,-4
-10,19,-5
-14,18,-4
-11,18,-2
-12,14,-4
-10,9,-6
-11,8,-5
-8,3,-4
-8,2,0
-8,2,-1
-5,1,-2
-7,-1,0
-7,-2,0
-5,0,0
-5,-2,3
-4,-1,0
-6,0,-2
-3,3,2
-4,6,2
-1,7,1
3,6,-1
8,9,-1
12,7,-1
15,7,-1
17,9,-3
22,5,-1
23,5,-6
20,7,-2
18,6,-3
17,6,-3
16,3,-2
17,2,-1
13,1,0
10,3,-2
7,0,0
7,0,0
7,2,0
7,1,-1
4,1,1
0,3,-1
2,6,-2
-1,11,-5
-4,11,-5
-4,12,-5
-3,8,-2
-5,12,-2
-9,16,-2
-6,16,1
-10,18,1
-9,19,-3
-7,21,-2
-12,24,-1
-10,22,-2
-11,18,-5
-9,16,-3
-12,12,-4
-9,10,-5
-10,1,-7
-10,-9,-4
-8,-15,-7
-9,-19,-7
-7,-21,-8
-6,-27,-4
-3,-28,-3
-3,-30,-6
-1,-35,-4
0,-28,-3
-2,-25,-7
-2,-24,-9
-1,-22,-7
-1,-18,-7
0,-15,-3
0,-13,-5
0,-11,-7
-1,-8,-3
0,-3,-3
-2,-3,-6
0,2,-5
0,1,-4
-2,0,-6
1,0,-3
2,1,-2
3,-3,-2
6,-5,-5
4,-3,-7
4,-10,-4
7,-9,-4
7,-10,-6
5,-9,-7
9,-7,-6
6,-1,-4
5,-2,-1
3,6,-3
-2,5,-2
-6,13,-3
-12,13,1
-19,17,6
-21,18,7
-25,21,8
-23,19,11
-21,20,13
-14,23,11
-2,23,8
6,24,4
14,22,-2
20,18,1
27,14,0
25,11,-5
27,6,-2
20,4,-4
17,1,-1
13,-6,-1
8,-10,-2
4,-8,2
1,-11,5
-2,-11,6
-2,-11,9
-5,-7,7
-6,-6,11
-7,-6,11
-7,-6,13
-8,-5,10
-8,0,11
-5,-2,11
0,-2,12
-2,0,13
3,-2,11
3,-1,8
3,-3,8
4,-3,3
5,-4,5
5,-4,5
5,-5,5
4,-9,5
6,-10,4
7,-15,4
5,-13,4
7,-11,7
5,-10,8
3,-9,9
4,-9,8
5,-6,9
5,-5,8
8,-1,8
10,-1,8
14,-1,6
18,-2,6
21,-1,1
22,-4,0
20,-6,0
23,-11,0
22,-14,-1
22,-21,0
19,-22,-2
16,-24,-2
13,-26,0
11,-28,1
11,-28,0
10,-25,2
8,-25,4
6,-25,2
7,-22,4
10,-22,2
7,-22,0
8,-21,0
9,-11,-3
11,-9,-2
11,1,-3
13,7,-2
12,9,-1
10,14,-3
15,14,1
9,16,-3
12,16,-3
6,13,0
6,13,-2
7,10,-1
6,10,-4
4,8,-3
2,5,-5
0,4,-1
2,5,-4
-2,5,0
0,9,2
-2,10,-2
-1,13,-2
-3,13,2
-3,16,-1
-6,16,-2
-5,17,0
-4,17,1
-3,17,0
-3,16,1
-3,13,4
-3,11,3
0,10,3
0,8,1
0,7,5
2,6,6
2,6,1
3,3,4
6,1,6
5,3,1
6,5,2
8,4,-1
10,4,-4
12,2,-3
9,5,0
11,5,-1
12,6,-1
13,5,-2
13,8,0
12,8,1
8,8,3
5,11,1
0,11,4
-2,12,0
-5,10,1
-10,10,6
-13,12,6
-13,11,5
-12,10,8
-12,12,8
-5,14,7
2,13,4
8,12,6
19,14,4
26,13,0
29,12,-1
32,11,-2
33,10,-2
29,7,-7
32,3,-5
28,0,-3
25,-1,-2
21,0,-2
15,-3,0
11,-3,2
8,-1,0
5,-3,3
0,-6,4
-2,-7,8
-1,-8,6
-2,-11,3
0,-12,1
-2,-13,0
-2,-15,0
-4,-16,1
-3,-16,0
-2,-14,0
-5,-12,-1
-3,-11,0
-3,-9,-1
-3,-12,1
-2,-8,0
-1,-6,0
-5,-4,-3
-2,-5,-2
-3,-5,-6
-4,-1,-3
-4,-2,-1
-8,-1,-4
-4,1,-2
-6,0,-2
-4,2,0
-3,7,0
-1,5,0
1,7,0
4,7,-2
10,4,-4
10,5,-5
12,6,-7
12,5,-7
13,3,-4
17,0,-6
17,0,-6
16,-4,-7
14,-5,-5
14,-6,-5
15,-5,-5
12,-3,-6
13,-2,-3
12,-3,-2
13,1,1
10,2,-2
10,2,3
10,1,2
8,2,2
9,5,4
6,4,0
7,3,1
5,1,-3
8,-2,-4
8,-3,-5
8,-3,-5
5,-5,-6
3,-4,0
1,-4,-5
0,-4,0
0,-5,-1
-1,-3,-2
-3,-2,-3
-2,-5,0
-4,-4,-5
-7,-3,-1
-4,-4,-4
-3,-2,-3
-1,-1,-3
-2,-1,-3
-1,0,-4
1,-1,-1
2,-3,1
3,-6,-2
3,-7,-3
1,-8,-3
2,-10,-1
1,-10,0
1,-11,-2
0,-6,-5
0,-10,-2
1,-8,0
4,-9,0
2,-10,-3
5,-8,-4
8,-4,-2
9,-1,-3
6,0,-2
0,4,0
-1,4,-2
-7,5,-2
-9,3,0
-17,1,0
-21,3,1
-19,6,8
-17,13,9
-15,13,8
-5,14,10
2,18,13
11,19,8
21,15,6
29,11,6
37,10,1
41,2,1
43,-4,-3
39,-9,-4
41,-13,-3
37,-16,-1
34,-19,-3
27,-21,-3
24,-18,-1
19,-19,0
16,-16,-3
9,-15,0
5,-12,0
-1,-7,1
-6,-5,3
-8,-5,5
-8,-2,0
-12,1,0
-14,0,0
-16,0,-2
-17,0,-4
-18,1,-4
-20,-2,-1
-20,-6,-4
-23,-6,-3
-21,-9,-7
-20,-14,-9
-18,-16,-6
-15,-14,-8
-15,-16,-5
-17,-17,-4
-15,-18,-4
-14,-14,-1
-12,-17,1
-15,-13,-3
-13,-15,-1
-11,-11,-1
-10,-13,-2
-7,-10,-6
-3,-9,-3
-1,-7,-3
-1,-5,-3
2,-2,-5
5,-3,-3
4,0,-4
3,4,-7
5,0,-6
5,-2,-6
4,-2,-4
3,-1,-4
3,0,-2
3,-4,2
5,-3,2
5,-2,1
8,0,1
13,-3,0
14,-3,0
16,-6,-2
16,-2,-3
13,-4,-2
18,-5,-4
18,-9,-1
16,-10,0
17,-7,0
16,-5,0
18,-6,1
14,-1,-1
9,-2,-2
9,0,0
10,-1,0
6,0,-1
4,-2,4
4,-2,3
4,1,0
2,-1,1
1,0,2
0,1,2
1,0,4
0,0,1
3,0,2
0,2,6
0,4,5
0,4,2
0,0,1
0,0,-2
1,0,3
5,0,2
1,-1,2
2,0,5
4,0,7
2,0,8
3,1,7
0,0,4
4,2,3
4,3,5
8,0,5
7,0,2
5,-2,4
9,-1,1
9,-3,1
12,-3,0
11,-3,-3
9,-2,-4
6,1,-4
4,4,-2
-1,6,-1
-8,7,3
-10,9,5
-16,12,8
-22,13,11
-18,14,13
-14,14,8
-4,15,8
7,12,4
19,11,4
28,8,2
34,4,-2
39,0,-4
41,-3,-4
37,-5,-7
33,-10,-8
25,-16,-8
20,-19,-7
10,-16,-7
4,-16,0
-2,-9,0
-8,-5,0
-13,-2,1
-14,0,3
-17,6,5
-20,9,6
-18,12,7
-19,15,6
-15,12,7
-12,14,8
-11,11,8
-10,9,7
-6,8,7
-3,4,3
-2,1,4
1,-4,5
0,-7,3
3,-9,3
2,-11,0
4,-13,2
2,-15,1
2,-15,4
0,-12,7
-2,-8,10
-2,-3,10
-3,-1,11
0,1,11
-4,4,13
0,11,8
7,9,8
11,11,6
14,11,5
19,9,5
21,8,5
25,4,4
26,2,5
27,-2,1
24,-5,-1
23,-5,-2
23,-5,0
21,-7,3
22,-7,3
19,-4,0
19,-4,5
15,-3,6
14,-1,6
14,0,5
14,-1,7
13,2,3
11,1,0
9,-1,1
9,0,1
8,0,0
6,-1,-1
6,1,-1
5,0,1
4,4,0
1,0,0
0,0,1
0,-2,-1
-1,-1,2
-2,-1,0
-3,-2,-1
-2,-2,-1
-7,-1,-1
-3,-3,-2
-4,-1,-1
-5,-1,0
-8,-2,0
-7,0,1
-5,3,1
-3,4,4
-7,4,3
-3,4,2
-6,9,2
-2,8,4
-2,5,1
-3,5,6
-1,7,6
2,10,8
4,4,5
5,8,7
9,3,7
10,0,7
13,0,7
18,0,9
17,-2,5
16,-1,7
17,-3,3
18,-3,6
19,-4,6
17,-4,5
21,-7,4
20,-8,4
18,-7,4
18,-6,5
18,-1,4
18,-2,3
17,3,-1
11,4,1
2,8,1
0,8,2
-3,9,7
-11,11,9
-15,12,13
-14,15,10
-13,18,13
-3,19,10
5,18,7
15,17,3
26,13,0
31,8,-1
41,2,-3
39,0,-2
39,-6,-4
36,-15,-4
32,-16,-4
26,-16,-7
22,-16,-4
12,-19,-3
5,-14,-2
0,-8,-1
-3,-2,2
-9,2,3
-10,5,5
-13,15,11
-15,17,8
-16,21,9
-15,20,7
-10,19,9
-8,19,7
-1,18,5
0,14,6
7,12,1
10,8,1
12,4,0
14,3,0
18,0,0
18,-3,-1
15,-2,-1
13,-2,4
8,-3,5
5,-1,6
-1,0,6
0,-5,13
-3,-1,14
-3,0,16
-1,0,20
0,3,16
6,3,18
14,7,17
22,8,16
31,7,13
35,5,11
41,4,10
42,4,5
45,0,5
45,-1,2
41,0,0
44,-3,1
43,-5,0
39,-4,3
38,-2,2
34,0,2
32,-2,2
29,3,3
24,1,4
19,3,3
16,4,4
15,4,7
13,5,4
11,6,2
8,4,3
7,5,0
4,3,0
0,1,-1
1,0,-1
1,0,-1
-2,0,-2
-5,0,-4
-8,1,-1
-4,-1,-3
-4,-1,-4
-6,-1,-4
-8,0,-7
-7,1,-6
-5,0,-4
-6,0,-6
-7,0,-7
-7,0,-5
-9,0,-6
-9,0,-2
-12,2,-6
-12,2,-1
-11,2,-2
-11,4,-2
-14,5,0
-14,8,-1
-16,8,0
-13,8,5
-16,7,4
-11,7,6
-9,5,4
-8,5,6
-5,2,6
-4,2,4
-4,0,2
-3,0,7
2,-1,5
1,0,4
4,-2,1
8,-2,0
9,-2,0
8,-3,0
13,-2,0
13,-2,0
16,-5,0
18,0,-6
15,2,-2
10,3,-1
5,4,0
0,7,0
-6,9,1
-15,10,7
-23,12,8
-25,13,13
-25,15,13
-21,14,13
-10,16,7
-1,18,7
9,14,3
19,12,1
27,11,-4
29,5,-6
34,2,-6
36,-1,-10
30,-3,-12
27,-11,-12
25,-15,-10
20,-14,-12
11,-18,-13
7,-17,-11
0,-12,-10
-7,-9,-7
-13,-7,-7
-22,-6,-3
-27,0,-1
-31,2,0
-34,6,0
-36,9,0
-35,8,2
-34,8,1
-33,8,0
-30,7,4
-29,4,4
-25,4,1
-20,1,0
-15,-1,-1
-7,-3,-1
-3,-6,-4
-1,-7,-3
3,-4,-5
1,-7,-6
1,-7,-5
3,-6,-5
3,-5,-6
-2,-4,-4
-1,0,-3
-4,1,-2
-5,6,-3
-3,6,-3
3,5,0
4,8,-2
6,10,-4
8,10,-4
8,9,-4
7,9,-6
5,6,-2
9,4,-7
11,0,-6
9,-1,-10
6,-1,-8
6,1,-14
2,0,-11
3,0,-8
-2,0,-7
-1,1,-6
-4,0,-7
-9,4,-8
-10,2,-7
-14,0,-9
-16,2,-5
-12,0,-3
-20,0,-5
-18,0,-4
-14,-2,-7
-17,-3,-9
-16,0,-8
-15,-2,-10
-17,-2,-9
-16,-1,-9
-13,0,-8
-15,2,-7
-13,2,-8
-13,1,-7
-9,0,-8
-10,3,-7
-4,0,-8
-6,-2,-7
-5,0,-9
-5,2,-10
-2,0,-8
-3,0,-10
-2,2,-8
-5,2,-6
-4,4,-10
-4,2,-5
-5,3,-7
-5,2,-1
-7,3,-1
-6,7,-1
-6,7,-1
-8,4,-1
-7,4,-2
-7,5,-1
-6,7,-1
-4,2,-1
-4,3,-2
-2,1,0
-1,0,-2
0,-1,0
1,-1,0
2,-3,-1
5,-3,0
6,-2,-3
8,-4,1
6,-1,-3
6,-1,-4
7,0,-4
9,1,-4
5,1,-4
8,4,0
5,4,-2
3,6,-3
7,4,0
8,7,-3
4,8,-3
-1,9,-1
-4,8,-5
-4,4,-6
-10,3,-6
-15,3,-5
-20,3,-1
-27,8,2
-26,8,5
-26,14,6
-18,14,6
-11,19,7
-4,20,7
3,19,2
12,17,0
19,13,-3
24,11,-3
29,4,-4
31,3,-7
28,-2,-10
26,-5,-12
24,-9,-11
21,-12,-7
17,-13,-6
14,-11,-5
9,-11,-3
2,-7,-1
0,-6,1
-5,-5,1
-6,-1,3
-9,2,5
-12,4,6
-14,1,5
-14,9,4
-16,8,0
-15,8,1
-15,6,0
-16,6,0
-12,3,-2
-12,3,-2
-13,5,-6
-13,1,-4
-12,-1,-3
-9,0,-4
-7,0,0
-9,-1,0
-6,0,0
-5,1,3
-3,0,1
-3,2,1
-3,1,4
-3,2,4
0,3,3
1,5,1
10,8,1
12,9,1
14,8,1
16,9,0
16,4,-1
16,5,-4
16,3,-1
18,4,-1
14,2,2
19,1,1
13,-1,0
14,0,1
11,4,-1
10,3,-1
7,3,0
7,3,3
7,3,1
4,0,0
3,4,3
3,3,0
4,5,-2
3,5,0
2,7,-1
3,8,0
3,2,-2
1,1,-6
1,-2,-1
3,-1,-2
-2,-2,-3
0,-1,-4
0,0,-4
-1,0,-5
0,2,-3
1,0,-2
0,3,-1
2,1,-2
0,7,-5
0,4,-3
-1,4,-5
-1,5,-7
0,4,-5
-1,4,-5
1,0,-2
0,3,-2
0,0,-1
0,2,-1
0,2,-2
4,2,-2
2,2,-2
0,1,0
0,4,2
1,2,0
2,2,0
2,4,3
2,1,2
3,1,2
4,0,3
3,4,0
4,1,0
4,2,1
5,2,0
3,2,0
3,3,2
3,2,2
6,3,-1
3,4,1
1,6,2
0,6,1
3,5,0
2,6,0
4,4,0
3,5,-3
2,7,-1
2,4,-2
4,3,0
2,4,-2
2,3,-4
2,3,-7
2,1,-4
1,0,-8
4,-5,-5
0,-7,-9
2,-6,-7
1,-8,-5
2,-8,-5
3,-5,-5
0,-3,-4
4,-2,-4
5,-3,-2
5,1,-6
-1,2,-4
-5,4,-8
-13,4,-6
-15,5,-6
-21,8,-2
-23,6,1
-27,10,2
-29,8,2
-27,14,3
-21,11,2
-13,14,2
-4,12,0
5,15,-3
15,14,0
22,10,0
31,10,-3
30,5,-4
33,2,-4
30,-1,-6
29,-3,-3
25,-9,-4
16,-9,-3
13,-12,-1
10,-10,2
4,-8,4
2,-7,7
-1,-5,7
-4,-2,8
-4,-1,7
-3,-2,8
-5,-1,6
-4,0,4
0,-3,4
-1,-2,1
0,-3,1
-2,-2,-2
2,-1,-2
0,-1,-4
-3,0,-1
-4,1,-3
-6,0,-1
-9,-1,-1
-9,0,0
-10,2,4
-12,-1,0
-12,0,3
-12,-1,4
-13,-2,3
-9,-4,3
-11,-4,2
-6,-2,3
-4,-2,6
-4,-1,2
1,0,5
4,3,-1
7,2,-3
12,0,-4
17,-2,0
16,0,0
14,-2,-2
17,-4,-1
14,-2,0
12,-2,0
11,-3,2
12,-4,1
9,-4,-1
9,-3,4
9,-1,4
6,0,3
6,0,4
5,-2,4
5,0,5
6,0,4
3,0,6
5,2,5
7,-1,8
8,-1,3
7,-2,3
8,-3,6
7,-5,3
10,-4,4
11,-10,3
9,-10,2
11,-6,2
8,-8,0
9,-8,0
8,-6,1
10,-5,0
10,-3,2
6,-1,0
9,-4,4
5,0,2
7,0,1
9,-2,3
4,-1,3
2,-3,3
6,-5,4
2,-4,4
2,-4,3
0,-2,3
0,-5,2
-2,-5,1
0,-6,3
-1,-5,4
-3,-1,3
-1,-4,2
0,-2,4
-1,-6,4
0,-5,6
0,-4,6
2,-3,5
1,-1,5
2,0,5
1,0,3
3,0,4
0,0,5
2,-2,3
2,-1,1
3,-2,4
4,-3,5
3,-1,4
1,-1,3
3,1,4
3,1,0
5,1,2
6,-1,2
5,0,3
7,0,2
8,0,5
6,1,0
8,-1,3
7,1,0
7,0,3
9,2,1
4,3,0
5,-2,0
4,-3,-1
4,-8,0
7,-7,0
4,-8,0
7,-9,3
7,-6,0
8,-2,0
10,0,0
13,2,-2
13,7,-2
12,8,-4
8,9,-6
4,9,-4
-2,10,-2
-9,6,1
-16,8,3
-20,4,7
-26,10,8
-18,10,11
-10,9,10
-4,12,8
6,11,4
19,8,4
27,3,0
36,-2,-1
37,-8,0
38,-10,-1
38,-14,0
31,-18,-2
24,-14,-1
20,-16,-2
10,-15,-2
3,-11,0
0,-8,-1
-5,-4,2
-9,0,3
-12,6,4
-14,6,4
-14,6,5
-15,8,8
-14,9,4
-14,10,3
-11,11,6
-10,5,1
-10,4,0
-7,1,-1
-5,-2,1
-5,-5,0
-2,-4,0
-1,-7,-2
0,-6,-4
3,-10,-4
-2,-8,-7
0,-8,-5
-4,-3,-3
-7,-3,0
-7,0,2
-11,0,4
-12,3,6
-13,4,11
-11,5,9
-9,7,10
-5,9,8
5,8,9
11,11,2
15,8,1
21,10,2
23,11,0
28,6,2
26,4,1
26,5,0
29,0,0
30,-2,1
28,-2,1
30,-1,1
27,-4,-2
25,0,0
25,0,-1
23,-1,0
25,3,3
26,4,6
25,7,4
24,6,4
24,4,3
26,1,3
26,-1,2
22,1,4
24,0,3
18,0,0
18,-2,2
12,-1,-2
13,-1,-2
12,-3,-1
11,-3,0
9,-3,0
6,-2,0
5,-3,-1
3,-4,0
1,-3,-2
0,3,-2
-1,2,0
-3,2,0
-8,4,-1
-8,2,1
-6,2,1
-9,7,3
-12,7,3
-11,5,3
-11,6,2
-11,3,3
-10,5,0
-7,2,7
-6,1,5
-3,-1,6
-1,-1,5
-1,0,8
0,0,6
2,0,6
2,1,7
3,5,7
4,5,5
4,7,6
6,6,4
6,4,4
9,4,4
8,3,3
10,4,3
9,3,4
11,1,2
11,-1,7
9,4,4
13,-2,1
11,0,2
9,-2,2
10,-3,3
10,-4,2
6,-3,1
8,-4,0
9,-1,1
7,-3,0
8,0,-1
5,0,0
6,2,-1
3,5,-5
-2,8,-9
-4,9,-5
-11,13,-3
-14,10,0
-23,10,6
-29,12,9
-31,10,8
-27,10,8
-22,12,5
-11,12,2
-1,12,3
13,10,-2
25,6,-3
28,4,-3
32,-1,-6
36,-6,-6
30,-7,-13
26,-13,-8
25,-16,-9
18,-16,-8
11,-16,-10
5,-14,-7
1,-6,-6
-6,-1,-1
-10,1,-1
-16,5,3
-22,12,4
-22,13,7
-25,11,7
-27,13,3
-30,13,4
-28,11,3
-29,7,5
-26,6,2
-26,3,5
-24,3,3
-19,-3,6
-15,-6,2
-10,-8,1
-3,-12,2
-1,-14,3
1,-15,0
5,-16,0
8,-13,1
9,-11,0
5,-11,-1
6,-5,-1
0,-4,1
2,0,4
0,-1,5
-2,3,8
-4,4,4
-2,4,8
1,11,5
5,11,6
11,10,5
14,12,5
18,10,2
17,9,5
25,2,3
27,3,2
24,0,1
27,-4,-2
21,-7,-2
24,-7,-2
20,-5,-5
20,-6,-5
19,-4,-5
16,-4,-5
10,-4,-5
10,0,-6
8,-1,-4
3,1,-7
0,1,-9
-3,3,-6
-8,4,-6
-7,4,-9
-11,2,-7
-13,0,-9
-16,0,-9
-15,0,-8
-16,-2,-9
-19,-4,-10
-20,-3,-14
-20,-4,-13
-18,-8,-17
-21,-5,-14
-18,-4,-15
-18,-6,-14
-17,-4,-17
-21,-2,-17
-19,-2,-15
-19,-3,-13
-19,0,-12
-20,0,-12
-19,3,-11
-22,3,-9
-22,5,-10
-22,4,-5
-22,2,-7
-23,2,-2
-22,2,-3
-21,2,-3
-20,3,-1
-17,1,-1
-14,5,-1
-11,3,1
-9,5,3
-5,2,1
-2,7,3
0,6,1
2,4,1
6,3,2
9,2,1
8,4,2
13,5,0
12,3,1
14,0,0
14,1,1
16,1,0
12,1,-1
15,0,0
13,0,0
13,1,-1
13,3,0
13,1,0
7,8,-1
4,3,-2
1,9,0
-4,9,4
-7,9,1
-10,12,6
-14,14,6
-19,15,9
-21,16,7
-15,15,7
-10,16,6
-2,15,3
7,15,3
14,15,0
21,11,-2
23,10,-9
29,3,-6
29,-2,-4
29,0,-9
25,-5,-9
19,-3,-9
16,-3,-10
11,-4,-7
5,-5,-3
1,-2,-2
-2,1,-4
-4,0,4
-8,1,1
-14,1,3
-13,3,4
-16,1,7
-19,2,2
-16,3,2
-18,3,0
-16,3,1
-16,5,0
-14,5,-1
-12,2,0
-10,1,-2
-10,1,0
-7,2,-3
-7,0,-3
-4,0,-1
-6,0,-4
-3,1,0
0,0,0
-1,-2,3
-1,0,0
-2,2,3
-1,1,3
0,2,4
-1,2,0
-3,6,7
0,8,1
3,8,1
1,7,-1
7,6,0
11,7,-2
13,6,0
15,4,-2
14,6,-4
16,3,-2
18,2,0
13,2,0
14,2,0
13,-1,-1
12,1,-1
10,2,0
9,0,0
8,-4,2
7,0,0
6,3,1
2,4,1
6,5,0
3,8,-1
6,6,-4
4,7,-3
4,8,-3
5,4,-6
3,5,-3
1,2,-4
1,2,-3
0,0,-2
0,0,-3
-3,-2,-3
-2,-5,-1
-1,-4,-3
-3,-3,0
-1,-2,-1
0,0,-4
-1,0,-4
-1,2,-2
2,0,-2
-2,4,-3
0,4,-5
-1,7,-3
-1,5,-5
0,2,-3
-1,2,0
0,3,1
-5,1,-1
-3,0,0
-2,-1,1
-5,-1,1
-6,-1,3
-2,1,0
-2,0,3
-2,2,0
-1,4,1
0,0,1
2,6,2
1,7,3
2,3,4
2,8,5
5,9,2
6,5,2
8,3,3
7,1,1
9,1,2
11,0,2
10,0,0
9,-1,-4
10,-1,-3
12,-3,-4
8,0,0
12,-1,-1
13,-1,-1
13,-2,0
9,-1,0
5,4,-2
0,7,1
-3,9,0
-8,11,1
-11,11,0
-13,15,1
-15,19,1
-11,20,0
-6,20,1
-1,27,-3
8,23,-6
17,22,-12
25,19,-14
32,13,-20
40,11,-24
41,5,-30
43,-1,-30
40,-6,-34
38,-11,-37
26,-15,-33
18,-16,-37
12,-22,-31
2,-22,-31
-7,-20,-27
-18,-16,-24
-26,-13,-18
-32,-11,-15
-36,-7,-9
-37,-6,-6
-40,-2,-3
-38,-1,-1
-38,0,0
-38,2,1
-33,2,0
-28,4,-1
-22,3,0
-16,4,-3
-13,4,-3
-5,3,-4
-2,2,-7
4,1,-6
6,0,-7
10,-1,-3
15,-1,-7
19,-1,-6
19,0,-7
19,0,-8
15,0,-4
13,-3,-4
12,-4,-5
7,-6,-4
5,-8,-4
0,-5,-5
-2,-6,-2
-3,-5,-2
-6,-1,-3
-4,-2,-3
-5,1,-2
-8,0,-5
-9,0,-2
-13,-1,-4
-13,-2,-1
-16,-2,0
-18,0,-2
-18,-5,-2
-20,-1,0
-20,-1,-2
-21,-4,-1
-19,1,0
-17,-1,4
-14,-3,5
-14,-1,2
-13,-2,4
-11,-3,3
-7,-2,6
-7,1,3
-3,0,8
-2,-3,8
0,-6,7
-2,-3,8
1,-2,9
-2,-4,11
0,-6,12
-1,-8,9
0,-7,10
-1,-9,9
0,-7,9
-1,-10,12
0,-9,10
0,-6,8
-2,-6,9
0,-6,9
1,-6,10
-2,-6,5
-3,-5,7
-4,0,10
-5,-3,9
-5,-1,13
-3,0,16
-4,-1,19
-5,-5,25
-7,-5,21
-8,-6,21
-9,-2,21
-8,-6,20
-6,-3,20
-11,-5,19
-8,-4,17
-8,-5,17
-8,-2,14
-7,0,15
-4,0,14
-6,2,11
-4,2,13
-2,6,9
0,3,11
2,6,12
1,5,7
4,5,9
5,1,11
6,2,13
8,2,15
15,1,17
14,1,21
19,1,23
17,1,21
19,-1,20
16,-1,20
20,-2,19
19,-4,14
17,-4,11
21,-4,5
22,-5,0
23,-3,-1
19,-1,-5
15,1,-9
10,1,-7
7,1,-1
0,0,-2
-3,0,1
-13,-2,4
-13,0,2
-13,1,7
-7,5,3
-2,5,2
5,6,-1
17,4,-3
23,0,-7
27,-1,-9
28,-7,-7
29,-10,-8
25,-16,-10
19,-16,-10
13,-20,-8
4,-22,-8
-1,-18,-9
-8,-17,-7
-11,-14,-6
-17,-9,-7
-22,-4,-4
-19,-4,-1
-22,0,-1
-20,1,-1
-19,7,0
-18,5,1
-13,6,0
-13,9,-2
-10,5,-2
-8,5,0
-6,4,-1
0,1,-1
3,1,-3
5,-2,-1
7,-3,1
12,-5,0
15,-7,0
14,-6,-2
22,-9,1
20,-5,0
18,-6,3
14,-2,1
16,-4,4
13,0,2
10,2,5
10,3,7
7,7,9
8,9,10
5,9,10
10,11,8
14,14,5
19,12,4
21,9,3
29,6,4
27,6,6
26,3,5
26,-2,4
25,-3,6
23,-5,3
19,-3,3
18,-4,6
12,-4,5
9,0,4
6,1,5
2,2,1
3,2,4
0,6,0
0,5,3
-2,4,0
-1,6,-2
0,1,-1
-1,-1,-2
1,0,-4
0,-3,-3
0,-6,-5
-1,-6,-6
0,-9,-6
1,-15,-7
-1,-14,-6
1,-13,-10
0,-11,-10
-1,-10,-8
-7,-4,-10
-10,-5,-10
-16,-2,-9
-22,2,-8
-30,8,-8
-32,8,-2
-40,16,-1
-40,18,5
-40,20,9
-39,22,9
-32,22,5
-24,17,7
-15,17,6
-7,12,1
0,8,2
9,4,0
14,-2,1
17,-9,-1
19,-12,0
19,-15,1
18,-18,2
15,-19,0
10,-19,3
9,-16,4
6,-16,3
4,-13,6
1,-8,6
-3,-1,4
-7,0,5
-8,5,4
-9,9,6
-7,12,6
-10,9,5
-9,9,7
-9,11,9
-8,7,6
-8,6,8
-6,0,9
-7,0,5
-6,-1,7
-4,-5,10
-4,-4,9
-8,-4,12
-9,-7,11
-9,-7,15
-13,-4,12
-8,-3,14
-10,-1,17
-11,3,15
-9,4,15
-2,4,14
4,7,11
11,8,10
16,9,9
15,9,10
22,8,9
23,6,6
22,5,6
25,2,8
21,0,7
19,0,6
21,-1,7
18,0,8
14,0,7
11,-1,8
11,0,6
11,-1,4
7,-1,5
4,1,8
4,3,3
5,6,4
5,3,5
8,6,3
10,2,0
10,1,1
12,-2,0
12,0,-2
12,-1,-1
9,-2,-4
10,-4,-2
7,-4,-4
5,-4,-6
3,-4,-9
1,-5,-11
-1,-1,-5
-5,-2,-10
-5,0,-6
-6,4,-7
-8,1,-7
-9,2,-7
-7,4,-5
-8,3,-6
-10,1,-3
-10,2,-1
-8,0,-3
-10,0,-2
-6,-1,2
-5,0,2
-4,-2,0
-1,-3,2
0,-2,2
3,-3,0
5,0,0
5,0,-2
7,-2,0
6,0,-2
7,2,-5
8,0,0
7,2,0
9,2,1
7,4,0
5,1,0
8,4,0
7,4,0
4,0,-1
4,3,-2
4,3,-1
2,2,-1
3,3,-3
2,5,-2
0,3,-5
1,3,-2
0,4,-1
0,3,-5
-3,3,-4
0,4,-4
-2,4,-4
-2,3,-4
-3,4,-6
-1,1,-3
-4,4,-7
-3,2,-7
-5,4,-5
-4,5,-6
-8,4,-5
-8,5,-4
-9,7,-5
-8,5,-5
-7,5,-6
-2,6,-4
2,3,-3
4,2,-6
9,0,-9
13,0,-11
19,-2,-14
25,-7,-13
29,-6,-16
33,-10,-18
34,-8,-25
33,-9,-28
30,-11,-30
28,-11,-29
24,-9,-34
16,-10,-33
8,-7,-33
2,-8,-32
-5,-7,-29
-9,0,-26
-16,0,-24
-17,-1,-20
-25,2,-15
-23,6,-10
-23,6,-8
-21,7,-5
-20,7,-2
-13,8,0
-8,7,2
-2,9,4
3,7,6
5,4,4
11,1,4
14,1,7
18,-2,4
19,-1,3
22,-2,1
20,-1,0
23,-2,1
21,-4,1
21,-3,4
20,-3,3
17,-3,6
19,-2,4
19,1,5
18,0,7
19,1,7
16,1,9
19,2,12
18,1,10
16,4,10
15,2,8
12,3,12
8,1,11
5,1,10
3,4,8
0,0,8
-1,0,3
-2,4,8
0,1,5
-3,2,6
-1,3,5
1,2,9
3,6,8
6,6,4
6,9,3
8,9,-1
4,14,0
0,14,0
-3,12,0
-5,8,-2
-10,6,0
-16,10,-2
-17,9,0
-17,13,-2
-12,14,-4
-6,11,-8
0,12,-9
9,11,-10
12,8,-13
17,3,-11
19,1,-11
19,-3,-9
15,-8,-5
10,-13,0
4,-13,-4
1,-15,-1
-4,-15,2
-13,-13,3
-16,-13,7
-18,-11,8
-17,-7,11
-13,-5,14
-13,-2,11
-10,0,13
-3,-1,9
4,-1,10
7,2,2
12,-2,2
16,0,1
19,-2,0
20,0,1
18,-4,0
20,-4,2
18,-5,0
17,-4,0
15,-5,1
16,-5,4
16,-3,2
15,-1,3
15,0,6
13,0,1
10,0,2
11,-1,6
3,0,4
7,0,6
5,0,4
6,-1,6
4,2,0
4,0,1
7,-1,-1
9,0,0
13,-3,0
19,-1,-5
19,0,-1
21,-3,-4
26,-4,-5
21,-4,-4
19,-2,-3
14,-6,-3
10,-2,-3
8,-5,-1
4,-3,-1
1,-6,2
0,-4,1
-3,-1,0
-1,0,-3
0,1,-3
-4,3,0
-3,3,1
0,4,0
0,5,0
-1,3,-1
0,5,0
0,0,3
3,-3,2
4,-2,1
6,-4,5
8,-4,2
10,-4,4
8,-3,0
11,-3,1
8,-3,1
8,-4,2
8,-5,0
11,-5,1
11,-4,3
10,-3,-1
10,-4,-2
10,0,2
7,-5,3
6,0,1
6,-1,2
3,1,6
4,0,4
4,0,6
4,0,3
4,0,4
4,0,5
4,0,6
4,2,5
5,1,6
6,-1,6
5,0,4
4,0,6
4,1,4
2,-3,5
4,-3,5
2,-4,4
0,-2,3
0,1,4
-1,-2,3
-4,-1,3
3,0,5
-1,-1,7
-1,0,4
0,0,3
0,0,4
0,2,4
0,1,2
-2,2,3
-1,4,3
1,4,0
0,5,1
0,2,2
1,4,-2
4,2,0
2,0,2
5,0,2
3,0,0
5,0,1
7,-1,0
6,-4,-1
6,-2,2
7,-3,0
2,-5,0
4,-3,-3
5,-6,1
3,-7,1
4,-7,1
1,-3,0
1,0,-1
2,2,0
0,2,2
5,4,1
6,7,0
6,9,-3
7,10,-3
0,13,-5
-4,15,-5
-6,13,-1
-18,11,0
-21,11,5
-31,11,11
-30,13,12
-28,13,12
-18,14,12
-10,14,7
0,13,6
12,11,3
21,6,2
27,2,2
29,-4,2
32,-6,0
28,-15,1
24,-18,0
18,-18,-1
9,-18,1
5,-15,1
-3,-11,3
-9,-7,2
-8,0,3
-11,1,8
-13,8,7
-13,9,6
-16,14,5
-15,15,5
-17,17,4
-14,15,1
-13,13,4
-14,10,5
-11,7,1
-10,7,2
-5,-2,8
-6,-3,4
-7,-5,2
-3,-8,3
0,-9,3
1,-13,-1
5,-12,-1
5,-10,-1
6,-10,-1
2,-9,1
1,-7,3
1,-3,2
-2,-2,3
-7,-2,2
-7,1,4
-5,2,5
-5,8,6
1,12,7
7,9,6
15,15,3
19,11,5
21,10,2
26,11,4
28,10,4
28,4,4
25,5,0
28,3,2
29,2,2
29,0,1
30,0,3
34,-4,5
38,1,4
37,4,6
41,4,8
43,7,6
44,6,6
45,7,3
47,11,5
49,9,6
48,9,7
48,8,7
46,8,3
49,7,3
47,5,2
46,2,3
45,0,5
44,-1,1
41,-5,0
37,-5,4
30,-5,-1
29,-9,2
22,-9,0
17,-8,1
13,-6,-1
7,-6,2
0,-6,-1
-3,-5,0
-9,-4,0
-11,-1,2
-19,-2,1
-19,1,2
-23,0,2
-24,2,2
-28,1,3
-29,1,4
-28,2,3
-27,3,4
-25,5,3
-27,3,3
-21,1,4
-19,2,0
-17,0,3
-18,-1,0
-13,-1,0
-10,-3,1
-7,-3,0
-5,-4,-3
-5,-4,1
1,-4,2
3,-3,0
6,-4,2
6,-1,-1
9,-3,-1
14,-4,1
17,-1,3
15,-3,0
15,-3,0
18,-3,2
18,0,1
21,0,5
20,-1,5
20,-3,5
20,-3,5
20,0,3
22,0,2
20,5,2
19,6,0
11,11,1
7,9,0
5,8,3
-1,9,6
-8,10,11
-14,13,13
-13,10,14
-10,10,13
-3,11,12
4,8,10
12,8,11
20,9,8
26,7,4
30,1,3
31,-2,2
31,-7,-2
27,-6,-4
19,-9,-8
15,-12,-9
10,-12,-9
1,-15,-5
-2,-14,-7
-10,-11,-6
-12,-9,-5
-15,-4,-4
-15,-3,-4
-21,-1,-2
-26,2,-2
-24,4,-4
-25,6,-4
-25,2,-1
-25,5,-6
-23,3,-5
-22,1,-6
-25,2,-7
-25,3,-5
-22,-3,-6
-23,-2,-8
-22,-4,-8
-20,-5,-7
-18,-6,-9
-16,-5,-7
-12,-7,-7
-11,-6,-9
-9,-7,-6
-10,-8,-7
-10,-5,-3
-8,-7,-5
-10,-8,-1
-10,-4,-1
-9,-4,0
-8,4,-1
-9,2,0
-3,7,1
0,8,-1
5,10,-1
7,12,-2
13,10,-4
16,13,-2
20,11,-3
17,9,-2
16,7,-3
16,2,-3
15,-1,0
15,0,-2
11,1,-1
8,0,0
9,-2,1
5,-1,2
6,-1,4
4,-2,5
8,0,3
5,0,4
4,0,0
6,2,1
7,0,0
6,0,0
6,2,0
7,1,-3
4,0,-2
5,1,-1
5,0,-2
2,-3,-2
0,-1,-1
0,0,-2
-2,0,0
-1,-3,-2
-1,0,0
-1,-3,0
-3,-3,0
-4,0,-2
-2,2,0
-2,0,-2
-2,3,-1
0,2,-2
-2,4,-4
-3,3,-2
-3,3,-2
-5,5,-3
-6,1,-2
-7,3,-2
-4,3,2
-6,4,0
-9,1,3
-8,4,1
-5,5,2
0,3,3
-3,5,2
0,4,2
2,3,2
4,2,0
5,0,1
5,1,2
6,-3,-1
8,-3,0
9,0,-1
7,0,0
10,0,0
11,-1,0
9,0,0
10,0,3
11,1,1
13,1,-1
12,3,-3
8,7,-3
5,7,-3
2,7,-2
-3,8,-2
-6,8,0
-9,10,0
-13,10,4
-17,10,6
-16,10,9
-15,11,7
-7,12,8
-1,15,4
5,14,4
14,12,4
19,12,-1
29,10,-2
29,10,-3
33,3,-5
33,2,-9
33,-4,-7
27,-1,-8
22,-7,-9
18,-7,-6
9,-6,-3
0,-4,0
-10,-8,3
-24,-7,8
-40,-7,7
-53,-9,7
-69,-7,10
-81,-5,7
-90,-1,6
-103,3,4
-113,5,2
-120,11,0
-124,10,-4
-127,12,-7
-131,13,-9
-134,13,-9
-133,13,-12
-133,13,-13
-133,8,-17
-126,3,-18
-125,2,-16
-113,-1,-16
-109,-8,-17
-104,-8,-17
-97,-9,-18
-90,-11,-20
-82,-11,-16
-79,-9,-17
-68,-9,-17
-57,-10,-15
-49,-3,-10
-38,3,-15
-23,9,-9
-12,8,-11
1,12,-8
14,18,-10
26,18,-8
34,23,-10
39,18,-6
49,18,-6
54,16,-8
58,13,-3
60,11,-3
63,7,-1
70,5,0
72,6,2
75,3,4
78,0,4
81,-1,8
80,-1,10
79,-3,12
79,-1,12
78,-1,13
80,-2,14
75,-1,11
73,2,14
73,2,18
69,1,17
68,7,17
65,4,15
62,3,16
61,5,12
56,1,12
52,-1,12
48,1,10
45,0,10
39,-1,8
37,0,6
35,0,4
29,-1,2
25,-3,1
20,-2,1
19,0,0
16,0,0
13,0,0
9,-1,-1
4,1,-2
-4,2,-5
-3,-1,-2
-8,1,-2
-10,1,-6
-14,-1,-2
-15,0,-4
-18,0,-4
-21,1,-3
-19,-1,-5
-21,0,-4
-17,0,-6
-16,-1,-4
-14,-3,-3
-13,-2,-3
-12,-1,-4
-9,-2,-4
-10,-1,-3
-8,-5,-2
-4,-6,-3
-2,-6,-3
-2,-7,-3
0,-7,-3
1,-5,-4
0,-10,-3
2,-11,0
6,-7,-1
7,-5,0
8,-5,2
9,-3,-1
12,-3,0
10,-1,0
5,1,3
3,2,3
-1,2,0
-6,3,4
-7,2,6
-8,5,9
-12,10,8
-13,13,9
-5,13,11
0,17,10
10,14,6
14,15,5
23,12,2
30,9,1
35,3,2
37,0,0
37,-5,-3
32,-11,-1
29,-16,-4
26,-19,0
19,-20,-3
13,-21,0
9,-22,3
5,-21,4
2,-17,4
-4,-14,6
-5,-10,6
-8,-5,6
-8,-3,6
-10,-1,3
-13,0,4
-13,2,3
-13,3,-1
-13,5,-2
-15,4,-3
-13,4,-2
-17,2,-6
-13,0,-8
-9,2,-6
-7,2,-7
-6,3,-7
2,2,-6
2,2,-8
7,4,-5
10,4,-5
9,3,-5
10,7,-3
8,4,-6
2,3,-7
3,6,-10
-1,6,-11
-1,8,-11
-5,11,-12
-8,12,-15
-3,12,-15
-2,12,-15
0,12,-17
2,10,-18
5,5,-13
5,7,-15
4,4,-15
0,0,-11
2,-1,-9
0,-2,-9
-1,-4,-7
-5,-4,-6
-9,-7,1
-11,-7,-1
-16,-6,1
-16,-6,2
-20,-6,0
-21,-7,4
-24,-6,3
-30,-6,1
-31,-5,3
-29,-4,0
-32,-4,1
-30,-2,1
-31,-3,0
-26,-3,0
-27,-2,1
-26,-2,1
-20,-5,0
-21,-6,1
-15,-7,1
-17,-8,0
-16,-5,-3
-13,-7,-3
-13,-8,-3
-11,-7,-8
-9,-7,-5
-10,-4,-9
-8,-9,-6
-9,-4,-8
-7,-3,-7
-4,0,-4
-1,-2,-3
2,2,-4
3,2,-3
4,5,0
3,3,-3
6,3,-3
5,0,-2
7,2,-3
5,3,-7
6,4,-6
5,4,-8
12,3,-8
8,3,-8
11,4,-7
9,3,-7
13,1,-6
16,1,-6
18,1,-5
15,0,0
16,-1,-3
17,-2,0
17,-3,-1
19,-5,-1
16,-8,0
13,-6,-1
13,-5,3
8,-6,2
9,-8,1
6,-6,1
4,-5,0
4,-1,3
6,-5,2
5,-2,0
5,0,-2
7,1,-2
5,4,-3
1,5,-7
-1,6,-4
-11,4,-5
-14,3,0
-21,0,3
-25,4,5
-25,2,9
-24,4,9
-14,7,11
-6,9,11
5,8,6
16,10,6
24,6,0
31,5,1
36,0,2
35,-5,-2
35,-11,-2
30,-12,-2
21,-12,-4
14,-15,-1
10,-10,0
3,-10,2
-2,-7,2
-5,-2,6
-6,0,6
-7,6,8
-5,9,9
-4,8,7
-3,11,4
-5,10,8
-1,13,8
2,9,7
3,7,7
1,5,6
5,0,8
4,-1,3
5,-4,4
7,-4,2
10,-9,2
12,-11,2
13,-13,3
14,-14,3
11,-14,1
12,-16,4
10,-12,4
6,-8,5
3,-8,4
0,-4,8
-3,-2,9
0,-1,11
-5,3,10
-3,6,9
-2,7,12
2,8,7
8,9,3
11,9,2
14,10,0
15,9,1
17,7,0
19,4,-2
20,-1,-2
14,0,-1
13,-4,-2
14,-6,-1
8,-5,0
9,-5,1
7,-5,0
8,-3,0
7,-2,0
2,0,3
4,4,0
0,5,0
4,3,0
2,3,2
2,4,0
2,1,-3
3,2,-2
1,0,-5
0,-2,0
0,0,-6
-1,-1,-3
-1,-1,-3
0,-3,-3
0,-3,-3
-2,-5,-3
-3,-3,-3
-1,-5,-1
-2,-2,-1
-5,-6,-3
-4,-5,0
-5,-2,-1
-5,0,-1
-8,0,0
-11,0,0
-12,0,-3
-12,0,-1
-14,2,-1
-13,4,-1
-14,6,-1
-17,4,1
-15,4,-2
-15,4,1
-14,4,0
-14,5,0
-12,2,3
-11,3,-1
-8,2,0
-6,2,2
-5,2,2
0,1,1
-1,0,0
1,1,0
2,0,-2
1,-1,0
-1,-2,-1
0,-2,-1
-4,-2,-5
-2,0,-2
-1,-1,-7
-4,-2,-8
0,-4,-5
-3,-3,-4
0,-1,-4
0,-2,-3
1,-2,-4
2,-1,-7
2,3,-5
2,5,-7
-4,8,-8
-6,8,-9
-8,13,-5
-12,9,-4
-16,8,-1
-20,10,2
-23,9,3
-19,11,6
-16,11,10
-8,13,6
0,14,6
12,12,1
19,10,0
28,6,-2
30,2,-5
37,-3,-4
34,-3,-10
30,-9,-10
26,-9,-10
22,-9,-11
14,-10,-7
7,-10,-6
6,-7,0
0,-2,-3
-2,0,1
-2,2,4
-7,4,2
-8,3,3
-8,4,6
-11,7,7
-11,7,8
-11,3,6
-10,7,3
-8,5,3
-6,-2,3
-5,1,1
-6,-4,2
-2,-5,1
-3,-6,0
-3,-6,-2
0,-7,-1
2,-10,0
3,-9,-4
6,-10,0
8,-10,-1
7,-9,1
8,-5,-1
7,-8,2
7,-7,2
5,-6,6
8,-2,3
8,-1,5
12,2,1
11,3,3
14,7,5
18,8,2
21,11,2
25,12,-1
26,8,1
27,10,-1
27,7,-2
25,7,-1
25,1,-1
28,-1,2
23,0,1
22,0,1
19,-2,0
18,-1,1
16,-4,6
12,-3,1
10,-3,2
7,-2,4
7,-1,2
7,-4,2
4,1,0
4,1,-1
2,4,1
2,4,-3
3,5,1
2,4,0
2,4,-3
2,5,-1
1,6,-5
0,2,-1
0,3,0
-4,2,-1
-4,3,-1
-2,2,0
-4,3,1
-6,1,0
-6,2,-1
-6,3,1
-5,0,-1
-5,2,-1
-4,0,-2
-4,2,-1
-3,2,-1
-1,0,1
-1,2,0
0,3,2
-3,2,1
-4,2,-1
-2,3,1
-2,5,5
-2,4,5
-3,3,3
-1,5,6
2,4,7
4,1,5
3,3,3
5,2,4
5,3,2
8,0,0
6,3,4
9,3,3
9,2,0
10,0,1
11,0,0
14,0,0
12,1,0
11,0,2
10,-1,1
10,1,-1
10,0,-3
13,-1,-4
12,1,-1
6,3,-5
1,2,-1
-2,4,-2
-7,5,-3
-12,6,-1
-17,5,-5
-18,6,1
-23,7,6
-21,8,5
-19,12,8
-16,13,3
-11,11,2
-1,15,2
8,13,1
13,10,0
20,7,-3
21,8,-9
24,4,-7
25,0,-9
23,-3,-6
19,-4,-11
17,-5,-11
10,-6,-5
5,-2,-7
2,-7,-2
1,-6,0
-5,-4,-1
-4,0,1
-6,-3,2
-7,2,3
-5,2,4
-6,-1,5
-7,0,3
-6,0,4
-6,2,-3
-7,1,-3
-4,-2,-2
-5,0,-1
-5,0,-3
-8,-1,-5
-5,-2,-3
-5,-1,-2
-5,0,-1
-7,-2,0
-6,-4,0
-10,0,2
-7,-2,3
-5,-1,2
-7,-3,6
-5,-1,5
-3,0,4
-6,-2,6
-1,-3,3
-3,-3,2
-2,0,0
-1,0,3
3,0,1
6,0,-2
7,3,-1
12,1,-2
13,1,-2
13,1,-3
15,0,-5
12,-3,-1
11,-2,1
11,-3,-1
7,-5,2
5,-4,0
2,-2,-1
3,-1,4
2,-2,1
1,0,2
3,0,3
2,-1,1
4,0,1
0,1,2
3,2,0
3,2,-3
6,0,0
7,-2,-1
5,-1,0
5,-2,-1
6,-2,-1
4,-4,-2
5,-5,1
3,-8,-1
0,-5,0
4,-3,0
4,-5,1
1,-6,4
0,-2,0
-2,-5,3
0,-3,0
1,-1,-1
1,-2,0
0,0,-1
0,0,-2
0,-1,1
-1,0,0
-3,2,1
0,-1,1
0,-3,3
-2,-2,4
1,-3,5
-3,-2,4
-1,-2,4
-1,-5,5
0,-3,4
0,-1,5
2,-2,5
1,-2,3
1,-4,7
1,-4,4
3,0,5
5,0,2
4,-1,6
7,0,6
7,0,4
7,1,4
4,0,5
7,-1,2
3,-2,5
3,-1,3
2,-1,-1
2,-1,2
3,-3,2
4,-4,2
3,-5,3
3,-5,4
4,-2,1
5,-5,3
10,-5,0
9,-1,-2
5,0,-4
1,6,-8
-2,8,-6
-5,7,-5
-8,7,-1
-15,6,-1
-20,7,2
-23,11,5
-23,10,8
-17,9,8
-10,8,10
2,10,9
11,8,6
20,3,1
27,1,0
32,-3,-1
36,-9,-3
34,-11,-3
30,-15,-4
26,-15,-4
16,-16,-3
10,-16,-3
3,-15,0
2,-10,2
-7,-8,8
-7,-3,6
-7,0,9
-8,3,7
-9,7,10
-10,8,10
-6,9,8
-8,7,8
-8,10,4
-7,8,5
-1,7,2
-2,4,1
0,5,3
0,-2,0
0,-3,-1
3,-5,-2
3,-8,0
3,-11,2
3,-11,1
5,-10,3
2,-12,0
4,-9,3
0,-2,3
-3,-3,5
-7,-3,6
-5,0,8
-9,0,8
-7,3,7
-5,6,8
-6,6,9
-3,9,8
2,8,7
3,8,3
13,5,0
14,5,-2
13,4,-1
15,3,-2
13,1,0
11,0,0
11,2,-1
8,2,-1
7,1,-2
9,3,-2
9,6,-4
10,10,-3
16,10,-3
19,17,-9
23,16,-7
24,23,-12
31,24,-12
33,33,-16
31,33,-10
32,35,-13
29,37,-7
21,37,-6
14,35,0
6,35,3
-2,36,10
-14,32,17
-26,35,16
-34,31,21
-43,33,19
-52,32,19
-55,32,23
-55,31,26
-57,30,25
-57,30,24
-56,29,26
-49,25,25
-47,24,24
-42,23,24
-38,25,23
-32,22,26
-28,24,21
-22,28,18
-16,30,16
-11,32,14
-12,38,12
-10,44,11
-9,51,6
-10,58,8
-10,66,9
-15,73,9
-16,83,8
-18,86,9
-18,90,6
-18,88,8
-19,88,4
-22,82,1
-25,79,-1
-26,70,-1
-30,61,-5
-30,51,-8
-38,44,-7
-40,33,-11
-46,26,-12
-52,20,-10
-55,11,-7
-55,4,-8
-59,5,-3
-56,4,0
-56,3,7
-56,2,10
-53,0,14
-52,3,14
-45,2,20
-40,1,22
-36,1,22
-30,4,21
-21,4,23
-17,6,18
-11,6,13
-6,5,12
0,5,8
1,5,6
3,7,9
0,6,12
-3,6,15
-2,6,18
1,9,20
0,7,21
8,8,26
13,10,24
22,7,23
33,6,24
34,3,24
37,2,22
42,0,22
40,-1,19
38,-5,20
38,-9,17
34,-12,17
31,-14,15
28,-17,15
25,-15,13
22,-18,13
21,-22,10
21,-21,10
16,-20,8
15,-17,8
15,-16,4
16,-13,4
19,-14,2
22,-10,-1
25,-8,-5
28,-9,-9
33,-9,-13
34,-9,-17
