79032
50333
50305
50288
50296
50270
50277
50255
50234
50230
50219
50243
50327
50412
50433
50434
50405
50391
50396
50365
50325
50338
50337
50346
50356
50373
50355
50375
50362
50370
50351
50360
50405
77143
77150
77147
77114
77046
76998
77021
77026
77044
77072
77075
77077
77125
77102
77091
77108
77127
50764
50682
50628
50599
50551
50534
50515
50479
50445
50435
50473
50550
50614
50617
50609
50600
50589
50570
50541
50514
50506
50504
50511
50491
50504
50478
50487
50479
50468
50453
50440
50442
77270
77246
77167
77095
77083
77097
77111
77124
77156
77194
77213
77212
77217
77211
77213
77231
77250
77281
50587
50567
50568
50554
50556
50529
50589
50656
50693
50706
50684
50663
50621
50587
50550
50527
50529
50528
50536
50521
50528
50510
50513
50495
50476
50459
50455
50418
50402
50414
50495
50526
77217
77230
77244
77278
77286
77318
77337
77332
77344
77354
77340
77354
77353
77365
77371
77370
77359
77364
77361
77375
77370
77336
77284
77260
77290
77329
77384
77431
77423
77434
77408
77412
77417
77421
77414
77406
77382
77376
77368
77368
77367
77372
77359
77311
77261
77214
77186
77184
77208
77220
77232
77249
77259
77285
77270
77309
77280
77295
77305
77315
77314
77316
77327
77322
77350
77324
77293
77265
77232
77235
77240
77277
77303
77332
77343
77369
77379
77381
77394
77380
77365
77388
77413
77397
77384
77404
77393
77399
77374
77320
77272
77269
77285
77338
77373
77396
77459
77519
77542
77561
77558
77557
77542
77520
77495
77518
77528
77564
77569
77587
77546
77523
77484
77475
77466
77462
77487
77490
77482
77479
77442
77405
77384
77349
77323
77310
77268
77225
77163
77137
77099
77048
76928
76841
76823
76790
76814
76795
76794
76807
76803
76772
76774
76768
76746
76721
76721
76710
76746
76720
76733
76741
76722
76662
76619
76598
76587
76619
76614
76644
76685
76706
76741
76747
76748
76771
76763
76761
76777
76790
76805
76827
76841
76805
76762
76749
76741
76758
76770
76801
76828
76881
76884
76895
76888
76885
76877
76894
76929
76979
76985
77012
77033
77001
76930
76922
76885
76913
76945
76943
76987
77028
77061
77080
77108
77096
77056
77038
77038
77021
77017
76980
76958
76897
76833
76776
76733
76739
76732
76768
76750
76784
76798
76835
76832
76836
76837
76814
76806
76829
76848
76897
76907
76859
76799
76761
76767
76763
76750
76760
76788
76823
76854
76862
76880
76902
76920
76939
76936
76960
76963
76972
76983
76922
76882
76866
76865
76896
76922
76959
76997
77020
77039
77069
77049
77049
77057
77056
77047
77066
77061
77083
77034
76962
76912
76908
76890
76906
76930
76966
76962
76967
76970
76962
76945
76935
76930
76927
76901
76869
76862
76823
76746
76668
76624
76622
76606
76601
76584
76613
76613
76644
76637
76622
76623
76642
76637
76633
76639
76673
76683
76676
76660
76629
76581
76585
76578
76621
76617
76665
76703
76739
76748
76740
76765
76758
76805
76809
76788
76808
76818
76843
76833
76829
76757
76681
76643
76635
76640
76631
76650
76686
76733
76773
76819
76818
76804
76802
76800
76787
76775
76778
76755
76760
76775
76805
76773
76772
76700
76609
76523
76474
76457
76449
76443
76449
76452
76441
76429
76476
76523
76568
76566
76610
76691
76724
76816
76846
76889
76938
76994
77024
77083
77107
77069
76985
76906
76870
76865
76884
76917
76965
76983
77022
77137
77189
77251
77241
77240
77239
77250
77241
77258
77287
77321
77342
77377
77414
77429
77454
77402
77332
77321
77346
77352
77382
77405
77425
77436
77465
77484
77508
77468
77489
77551
77581
77624
77619
77626
77610
77606
77617
77628
77635
77596
77508
77440
77391
77356
77348
77319
77300
77290
77300
77306
77329
77328
77359
77392
77416
77469
77521
77551
77607
77642
77674
77715
77733
77692
77622
77621
77630
77645
77690
77697
77731
77747
77794
77831
77836
77857
77883
77883
77905
77905
77939
77951
77937
77938
77943
77953
77942
77892
77813
77799
77764
77766
77763
77796
77803
77857
77856
77870
77892
77905
77923
77924
77938
77981
77986
78011
78024
78059
78054
78082
78066
77974
77947
77934
77933
77945
77968
78007
78001
78013
78016
78039
78030
78049
78034
78056
78059
78083
78090
78088
78090
78096
78083
78072
77981
77907
77882
77834
77820
77826
77785
77725
77641
77515
77439
77338
77256
77175
77097
77048
76988
76927
77052
77128
77200
77256
77256
77232
77168
77111
77092
77084
77087
77058
77032
76990
76947
76865
76824
76778
76792
76809
76843
76859
76846
76843
76866
76881
76911
76971
76934
76890
76851
76866
76881
76856
76804
76743
76696
76703
76747
76741
76737
76760
76771
76737
76742
76719
76684
76680
76670
76665
76662
76613
76512
76477
76419
76392
76355
76364
76348
76375
76413
76397
76415
76413
76438
76443
76466
76476
76551
76689
76764
76795
76861
76935
76933
76877
76831
76755
76698
76721
76822
76914
76933
76933
76942
76973
77010
77044
77050
77037
76966
76903
76911
76881
76868
76873
76805
76728
76714
76712
76710
76698
76683
76634
76601
76566
76692
76704
76760
76854
76928
76949
76955
76973
77005
77037
77080
77048
77001
76917
76863
76842
76848
76857
76887
76906
76940
76960
76960
76973
76973
76940
76912
76917
76924
76925
76957
76989
76944
76898
76843
76842
76869
76898
76958
76968
77024
77083
77112
77182
77198
77257
77266
77292
77323
77365
77374
77359
77244
77191
77150
77138
77126
77102
77036
76965
76987
77002
76985
77003
76997
76994
76934
76855
76799
76767
76751
76775
76787
76770
76745
76743
76747
76784
76796
76803
76824
76809
76743
76704
76640
76579
76531
76404
76351
76298
76294
76220
76109
75980
75922
75899
75886
75872
75897
75889
75901
75900
75890
75888
75845
75817
75815
75834
75839
75891
75908
75804
75780
75881
76067
76142
76189
76235
76275
76292
76319
76299
76276
76267
76278
76281
76292
76331
76358
76390
76381
76342
76290
76319
76329
76358
76406
76448
76479
76535
76599
76636
76697
76742
76791
76841
76876
76916
76906
76928
76867
76773
76673
76626
76586
76583
76576
76573
76590
76614
76630
76662
76668
76676
76667
76685
76707
76723
76749
76772
76809
76809
76729
76638
76590
76620
76647
76660
76682
76719
76758
76795
76808
76847
76860
76872
76886
76906
76913
76959
77000
77018
77060
77077
77028
76973
76950
76930
76940
76956
76964
76952
76945
76886
76864
76810
76735
76694
76668
76639
76650
76701
76781
76831
76855
76862
76794
76686
76620
76610
76629
76666
76704
76722
76773
76790
76824
76871
76881
76901
76951
76967
77038
77050
77089
77091
36363
77132
77162
77146
77052
77011
76991
77017
77012
77036
77060
77090
77112
77164
77161
77195
77211
77231
77231
77259
77251
77262
77299
77310
77342
77351
77360
77371
77409
77400
77403
77296
77246
77219
77222
77216
77224
77235
77263
77308
77304
77357
77350
77342
77355
77360
77372
77392
77417
77432
77434
77449
77481
77472
77463
77512
77524
77535
77564
77565
77531
77449
77383
77371
77348
77391
77399
77399
77446
77477
77506
77519
77511
77496
77523
77555
77542
77566
77569
77593
77607
77617
77636
77673
77677
77685
77696
77613
77543
77474
77505
77484
77508
77523
77568
77569
77598
77593
77613
77620
77620
77629
77637
77678
77670
77682
77696
77692
77713
77722
77708
77642
77579
77504
77503
77514
77526
77524
77510
77520
77542
77588
77588
77590
77585
77590
77598
77602
77611
77637
77640
77645
77648
77654
77660
77623
77522
77471
77433
77401
77394
77406
77418
77400
77431
77431
77430
77429
77446
77416
77454
77456
77446
77461
77462
77494
77550
77596
77603
77606
77599
77576
77494
77390
77327
77288
77245
77170
77024
76926
76883
76832
76819
76791
76756
76703
76715
76639
76544
76418
76369
76381
76455
76612
76743
76939
77146
77312
77406
77383
77359
77346
77344
77332
77306
77264
77229
77161
77146
77104
77095
77085
77075
77043
77028
77042
77063
77087
77115
77155
77181
77213
77279
77329
77373
77387
77337
77345
77387
77447
77500
77533
77556
77573
77572
77582
77580
77572
77544
77526
77542
77528
77546
77550
77549
77572
77583
77592
77599
77641
77638
77638
77621
77551
77506
77461
77458
77485
77504
77542
77561
77588
77615
77626
77633
77633
77640
77638
77643
77645
77652
77671
77642
77633
77646
77641
77663
77665
77653
77606
77525
77456
77465
77460
77434
77378
77323
77272
77188
77135
77124
77117
77138
77132
77141
77192
77258
77315
77370
77385
77446
77485
77513
77543
77570
77525
77467
77412
77388
77434
77384
77353
77248
77141
77170
77229
77276
77286
77312
77315
77347
77364
77395
77409
77427
77426
77463
77491
77470
77422
77335
77294
77237
77237
77235
77227
77232
77245
77258
77282
77290
77321
77322
77323
77342
77342
77354
77361
77361
77401
77381
77386
77396
77317
77223
77210
77158
77178
77184
77190
77199
77204
77205
77228
77254
77245
77256
77262
77258
77293
77287
77292
77286
77305
77332
77322
77303
77215
77145
77115
77089
77088
77106
77113
77109
77148
77162
77166
77184
77162
77171
77190
77187
77196
77191
77212
77221
77238
77234
77245
77250
77190
77122
77049
77025
77001
76986
77010
77018
77048
77045
77069
77077
77082
77081
77088
77092
77102
77094
77117
77116
77144
77135
77145
77177
77173
77167
77141
77033
76997
76973
76947
76952
76967
76970
77002
77026
77056
77049
77049
77062
77054
77056
77067
77098
77103
77111
77109
77122
77130
77150
77166
77168
77092
77016
76969
76956
76958
76962
76972
77005
77037
77044
77070
77092
77072
77074
77091
77118
77107
77132
77143
77162
77170
77158
77203
77206
77216
77136
77076
77025
77009
76980
77017
77012
77025
77050
77065
77110
77119
77122
77135
77138
77131
77164
77157
77170
77205
77205
77210
77227
77239
77252
77249
77211
77125
77070
77047
77022
77021
77033
77042
77093
77113
77130
77126
77132
77143
77136
77143
77159
77176
77164
77186
77193
77227
77216
77239
77247
77249
77276
77286
77270
77281
77228
77136
77072
77053
77054
77057
77056
77074
77094
77123
77144
77148
77164
77146
77152
77159
77160
77157
77167
77203
77208
77208
77229
77217
77239
77244
77263
77250
77271
77287
77302
77293
77322
77317
77214
77155
77082
77058
77060
77050
77056
77081
77088
77108
77121
77147
77127
77158
77137
77134
77131
77137
77164
77170
77171
77201
77188
77193
77221
77235
77251
77248
77269
77258
77266
77275
77273
77238
77139
77071
77033
77026
77032
77028
77039
77065
77085
77106
77109
77122
77104
77127
77123
77111
77108
77147
77144
77172
77141
77153
77186
77195
77185
77183
77237
77244
77199
77121
77032
76986
76973
76971
76971
76978
76979
76995
77026
77051
77072
77068
77057
77058
77076
77066
77099
77096
77121
77116
77138
77151
77156
77158
77184
77172
77078
77006
76951
76923
76930
76920
76938
76958
76972
76976
77012
77002
77028
77037
77046
77034
77049
77061
77088
77085
77097
77102
77106
77113
77145
77098
77020
76946
76898
76875
76882
76874
76873
76884
76913
76913
76950
76960
76967
76953
76969
76970
77015
76981
76991
77014
77015
77008
77028
77029
77048
77070
77078
77027
76916
76842
76815
76803
76804
76781
76796
76815
76840
76839
76875
76867
76896
76886
76892
76886
76894
76905
76931
76937
76919
76940
76960
76960
76963
76976
76972
76995
77005
76990
76925
76845
76779
76752
76745
76719
76730
76737
76755
76783
76787
76790
76817
76827
76801
76821
76834
76851
76850
76855
76875
76852
76875
76875
76912
76916
76927
76947
76933
76949
76984
76959
76978
77005
76923
76820
76761
76749
76732
76748
76744
76754
76773
76823
76848
76830
76856
76823
76824
76844
76850
76870
76883
76901
76887
76902
76912
76924
76922
76942
76955
76945
76985
77007
76953
76871
76805
76757
76745
76729
76734
76730
76766
76799
76801
76835
76853
76859
76837
76838
76872
76876
76888
76882
76897
76917
76920
76931
76947
76957
76988
76989
76978
76885
76811
76743
76738
76728
76721
76725
76727
76747
76752
76773
76787
76777
76802
76807
76804
76830
76822
76834
76854
76851
76873
76896
76870
76918
76908
76918
76939
76945
76906
76845
76752
76676
76690
76672
76662
76668
76691
76669
76707
76716
76725
76733
76729
76718
76736
76750
76730
76779
76776
76783
76798
76803
76812
76843
76841
76836
76849
76853
76867
76879
76889
76890
76909
76903
76927
76928
76931
76970
76957
76946
76980
76982
77013
77018
77018
77042
76964
76866
76778
76741
76736
76726
76734
76753
76779
76806
76809
76828
76857
76839
76858
76839
76855
76865
76852
76868
76903
76904
76912
76916
76924
76939
76949
76957
76964
76981
77000
77017
77028
77023
77056
77061
77048
76967
76896
76822
76840
76820
76827
76829
76855
76888
76882
76914
76946
76943
76942
76940
76955
76963
76977
77006
76989
77013
77025
77028
77028
77061
77071
77064
77076
77095
77104
77086
77005
76923
76871
76829
76820
76824
76837
76832
76809
76851
76868
76883
76887
76915
76899
76906
76913
76924
76926
76930
76945
76950
76958
76958
76970
76962
76987
77002
77004
76950
76875
76773
76743
76712
76691
76681
76666
76669
76674
76685
76702
76712
76732
76738
76749
76762
76766
76766
76777
76786
76787
76786
76805
76823
76843
76825
76859
76865
76863
76825
76726
76676
76647
76632
76623
76631
76645
76653
76688
76712
76711
76719
76718
76748
76737
76744
76775
76791
76790
76792
76800
76822
76826
76842
76839
76857
76879
76879
76842
76757
76696
76656
76619
76622
76613
76636
76628
76672
76678
76683
76681
76667
76691
76667
76690
76675
76677
76689
76691
76686
76680
76685
76688
76680
76685
76687
76699
76637
76544
76487
76427
76400
76389
76384
76389
76377
76372
76385
76400
76397
76393
76375
76356
76370
76364
76376
76371
76393
76410
76446
76449
76513
76547
76571
76569
76584
76605
76574
76508
76432
76399
76394
76371
76365
76389
76398
76409
76449
76476
76508
76498
76513
76516
76524
76522
76556
76553
76567
76570
76589
76602
76615
76623
76632
76668
76700
76702
76722
76720
76746
76771
76787
76804
76815
76847
76820
76779
76681
76626
76608
76593
76608
76610
76603
76609
76632
76636
76634
76633
76642
76655
76631
76639
76648
76657
76659
76667
76659
76656
76622
76606
76562
76562
76588
76561
76583
76574
76598
76584
76604
76599
76551
76472
76407
76379
76361
76361
76359
76369
76394
76363
76395
76383
76369
76399
76381
76375
76382
76396
76426
76437
76450
76483
76490
76526
76535
76550
76544
76597
76602
76595
76572
76499
76444
76402
76377
76375
76378
76388
76387
76397
76419
76466
76456
76477
76484
76491
76503
76514
76528
76536
76535
76548
76559
76561
76572
76565
76575
76602
76608
76639
76600
76514
76476
76464
76450
76463
76494
76484
76499
76526
76532
76577
76575
76595
76584
76591
76600
76609
76629
76627
76635
76640
76655
76659
76678
76661
76704
76701
76713
76738
76728
76717
76645
76569
76528
76528
76528
76522
76545
76561
76557
76606
76614
76635
76642
76637
76642
76657
76695
76695
76728
76743
76763
76766
76773
76792
76794
76812
76827
76837
76845
76881
76863
76766
76685
76619
76619
76615
76640
76656
76652
76674
76717
76728
76725
76739
76746
76738
76756
76751
76780
76786
76798
76814
76815
76830
76853
76856
76872
76873
76905
76894
76890
76815
76720
76704
76677
76642
76649
76665
76673
76697
76715
76725
76759
76771
76776
76782
76783
76792
76803
76804
76818
76820
76828
76842
76861
76879
76886
76882
76887
76901
76917
76948
76920
76854
76774
76722
76697
76697
76707
76678
76693
76719
76742
76760
76771
76793
76792
76788
76786
76800
76801
76824
76857
76849
76843
76852
76884
76890
76897
76914
76922
76939
76945
76944
76973
76949
76887
76810
76763
76734
76721
76741
76743
76761
76782
76805
76834
76835
76849
76860
76865
76865
76879
76885
76895
76904
76928
76935
76948
76960
76954
76976
76988
77001
77034
77002
76928
76850
76810
76789
76790
76778
76795
76796
76793
76834
76846
76865
76880
76880
76876
76893
76895
76904
76908
76930
76933
76962
76948
76938
76961
76991
77005
77019
77017
76965
76883
76823
76802
76759
76767
76766
76737
76772
76784
76805
76827
76850
76836
76875
76851
76848
76870
76885
76885
76901
76914
76905
76936
76942
76951
76949
76978
76978
76988
77007
77026
76981
76923
76838
76776
76761
76759
76755
76754
76766
76783
76812
76822
76847
76846
76843
76848
76842
76862
76864
76866
76869
76869
76877
76908
76910
76911
76919
76941
76964
76954
76978
76999
76992
77016
77011
76957
76887
76832
76789
76784
76763
76766
76793
76804
76833
76852
76857
76862
76896
76885
76888
76875
76893
76902
76916
76918
76946
76952
76953
76971
76975
77009
77000
76999
77033
77036
76999
76926
76876
76810
76821
76799
76800
76808
76807
76834
76857
76876
76889
76889
76903
76890
76911
76925
76941
76941
76942
76964
76986
76978
76977
76987
77013
77017
77020
76974
76930
76860
76829
76782
76782
76792
76807
76788
76820
76845
76865
76885
76901
76903
76926
76947
76961
76977
76995
77018
77022
77063
77078
77099
77112
77121
77131
77133
77154
77107
77008
76959
76911
76876
76844
76777
76750
76712
76701
76722
76718
76750
76807
76829
76844
76867
76897
76930
76974
76993
77008
76969
76913
76867
76822
76786
76744
76709
76700
76701
76697
76674
76695
76656
76592
76527
76435
76384
76378
76379
76376
76398
76381
76374
76383
76381
76363
76378
76365
76383
76374
76375
76369
76340
76345
76394
76451
76509
76532
76558
76566
76596
76615
76640
76663
76643
76572
76520
76456
76428
76422
76418
76434
76434
76445
76487
76498
76524
76537
76545
76563
76544
76564
76574
76577
76581
76601
76600
76622
76635
76657
76663
76678
76668
76573
76533
76474
76448
76435
76446
76461
76465
76487
76513
76535
76556
76564
76579
76569
76583
76578
76608
76620
76629
76649
76673
76666
76684
76698
76720
76741
76683
76626
76559
76534
76529
76513
76513
76536
76532
76577
76604
76628
76621
76657
76643
76655
76655
76666
76700
76709
76722
76745
76753
76751
76766
76776
76784
76809
76822
76813
76745
76682
76628
76604
76605
76628
76603
76637
76653
76679
76682
76709
76722
76747
76746
76730
76740
76749
76753
76793
76797
76818
76806
76830
76848
76837
76873
76878
76881
76900
76902
76874
76816
76723
76677
76651
76651
76631
76661
76663
76670
76679
76694
76723
76721
76727
76750
76735
76759
76771
76768
76758
76774
76763
76815
76811
76805
76827
76830
76827
76831
76840
76876
76883
76894
76879
76857
76769
76697
76657
76644
76623
76641
76625
76663
76653
76677
76700
76725
76712
76719
76738
76717
76727
76722
76743
76746
76746
76761
76766
76764
76790
76792
76807
76803
76841
76822
76828
76873
76892
76804
76735
76667
76619
76624
76606
76624
76630
76639
76644
76682
76709
76725
76728
76711
76730
76740
76737
76750
76756
76777
76758
76774
76798
76823
76799
76813
76841
76837
76843
76837
76802
76729
76640
76603
76611
76583
76595
76611
76613
76623
76655
76687
76697
76684
76716
76710
76705
76700
76706
76723
76706
76724
76728
76755
76765
76767
76800
76792
76810
76814
76801
76706
76633
76587
76573
76529
76531
76543
76567
76553
76577
76599
76613
76632
76640
76635
76650
76641
76678
76675
76696
76695
76703
76707
76720
76726
76746
76757
76772
76762
76790
76790
76769
76715
76639
76579
76563
76537
76523
76543
76552
76556
76588
76622
76621
76654
76650
76655
76655
76669
76666
76678
76696
76713
76704
76709
76732
76741
76760
76765
76774
76785
76809
76810
76832
76837
76771
76693
76635
76595
76580
76605
76599
76620
76636
76659
76702
76703
76713
76722
76753
76708
76738
76757
76779
76779
76791
76807
76822
76833
76831
76841
76868
76880
76881
76910
76880
76806
76747
76670
76645
76634
76645
76646
76667
76687
76697
76728
76752
76757
76766
76761
76758
76780
76782
76795
76805
76817
76815
76815
76843
76849
76864
76861
76872
76873
76864
76854
76751
76669
76625
76632
76602
76598
76600
76610
76633
76639
76669
76698
76706
76709
76691
76721
76720
76720
76715
76733
76734
76760
76765
76768
76779
76772
76785
76796
76808
76807
76799
76753
76677
76604
76542
76559
76519
76508
76527
76539
76574
76589
76609
76612
76625
76608
76627
76613
76627
76626
76652
76664
76663
76662
76676
76696
76676
76712
76717
76726
76736
76763
76754
76753
76689
76585
76534
76504
76484
76479
76482
76506
76518
76554
76573
76583
76606
76601
76591
76589
76620
76613
76629
76644
76678
76662
76666
76685
76689
76701
76710
76724
76741
76748
76694
76599
76521
76479
76444
76436
76428
76449
76464
76481
76491
76507
76551
76547
76554
76565
76557
76566
76566
76585
76603
76592
76598
76629
76624
76638
76648
76671
76667
76689
76697
76640
76557
76476
76436
76420
76403
76392
76421
76436
76435
76477
76490
76512
76520
76536
76542
76546
76571
76566
76580
76572
76581
76621
76607
76604
76621
76630
76661
76659
76675
76694
76690
76699
76679
76606
76542
76486
76451
76432
76438
76443
76440
76476
76505
76519
76540
76564
76560
76581
76571
76581
76580
76598
76611
76616
76633
76629
76660
76652
76688
76700
76714
76734
76726
76741
76758
76784
76711
76634
76558
76529
76492
76511
76519
76534
76544
76571
76606
76631
76641
76657
76660
76666
76679
76683
76696
76706
76721
76721
76727
76746
76778
76759
76782
76793
76805
76805
76751
76698
76623
76556
76525
76527
76525
76534
76562
76570
76597
76629
76645
76667
76666
76677
76668
76669
76664
76683
76691
76694
76727
76736
76750
76745
76768
76770
76790
76785
76787
76700
76619
76543
76496
76488
76487
76488
76496
76506
76525
76537
76586
76568
76590
76598
76617
76596
76616
76604
76627
76624
76646
76649
76671
76664
76666
76684
76684
76698
76702
76707
76703
76638
76551
76461
76436
76419
76399
76405
76417
76441
76462
76481
76505
76530
76522
76530
76520
76522
76545
76534
76544
76553
76563
76576
76581
76627
76613
76630
76626
76651
76649
76644
76665
76676
76639
76559
76467
76429
76407
76403
76389
76419
76440
76458
76488
76496
76522
76547
76545
76525
76552
76552
76551
76570
76581
76605
76596
76614
76622
76645
76657
76661
76672
76694
76681
76675
76590
76509
76447
76413
76406
76400
76406
76415
76433
76479
76476
76527
76532
76550
76534
76554
76566
76569
76582
76577
76606
76595
76611
76618
76633
76660
76679
76673
76683
76684
76684
76604
76522
76468
76416
76395
76409
76406
76411
76456
76447
76490
76504
76533
76531
76523
76546
76567
76556
76567
76579
76574
76590
76579
76615
76604
76627
76656
76635
76649
76703
76681
76703
76713
76653
76554
76486
76423
76405
76403
76413
76407
76418
76451
76467
76489
76529
76522
76536
76517
76538
76536
76532
76543
76551
76566
76596
76585
76622
76632
76659
76683
76702
76708
76724
76741
76768
76779
76768
76762
76705
76609
76548
76521
76513
76539
76547
76536
76564
76591
76630
76648
76666
76663
76659
76681
76690
76689
76679
76687
76718
76709
76726
76747
76765
76768
76784
76798
76815
76807
76835
76838
76801
76709
76599
76559
76525
76500
76515
76498
76529
76543
76551
76578
76616
76619
76626
76633
76645
76644
76648
76653
76653
76659
76681
76662
76669
76687
76702
76707
76730
76714
76726
76749
76728
76634
76540
76473
76431
76400
76404
76386
76390
76413
76429
76443
76456
76492
76505
76511
76525
76502
76493
76502
76514
76511
76517
76530
76534
76538
76532
76574
76566
76576
76577
76589
76602
76608
76602
76586
76507
76401
76358
76308
76294
76282
76296
76324
76334
76377
76410
76416
76437
76464
76444
76434
76458
76467
76460
76459
76488
76485
76494
76523
76524
76541
76546
76573
76589
76596
76621
76652
76646
76643
76598
76501
76414
76383
76383
76362
76383
76398
76411
76438
76468
76504
76549
76541
76549
76549
76559
76558
76551
76569
76568
76595
76624
76602
76632
76636
76661
76663
76682
76688
76698
76698
76654
76571
76457
76436
76398
76385
76376
76392
76400
76422
76461
76470
76504
76507
76508
76527
76523
76535
76526
76535
76553
76571
76560
76566
76586
76604
76599
76601
76630
76638
76629
76628
76640
76574
76474
76393
76359
76340
76329
76339
76321
76343
76355
76374
76375
76396
76437
76421
76434
76412
76431
76417
76435
76457
76441
76463
76463
76471
76486
76482
76487
76496
76507
76509
76524
76515
76531
76406
76354
76279
76242
76243
76245
76245
76270
76281
76311
76341
76348
76381
76376
76394
76381
76394
76385
76398
76418
76415
76438
76462
76476
76490
76518
76494
76518
76531
76547
76573
76566
76523
76429
76350
76311
76266
76285
76282
76286
76319
76340
76353
76381
76428
76423
76416
76434
76430
76421
76443
76441
76456
76484
76459
76494
76512
76517
76523
76524
76543
76548
76568
76549
76479
76390
76310
76260
76259
76253
76255
76267
76293
76317
76350
76365
76372
76389
76376
76388
76415
76389
76414
76428
76434
76424
76469
76469
76482
76502
76505
76525
76533
76549
76538
76555
76569
76525
76438
76335
76262
76242
76214
76222
76241
76229
76268
76297
76300
76345
76354
76358
76360
76374
76357
76357
76386
76368
76380
76392
76386
76403
76428
76435
76431
76454
76455
76466
76474
76496
76494
76508
76513
76504
76457
76359
76276
76225
76210
76224
76230
76238
76239
76283
76312
76351
76374
76367
76386
76366
76377
76395
76404
76375
76422
76420
76449
76452
76471
76478
76485
76508
76511
76537
76543
76589
76592
76590
76510
76419
76347
76302
76278
76298
76278
76320
76319
76360
76386
76394
76413
76411
76426
76453
76457
76448
76443
76479
76463
76491
76501
76489
76519
76521
76564
76565
76550
76572
76586
76581
76481
76389
76306
76268
76263
76245
76259
76269
76263
76288
76308
76355
76368
76375
76369
76370
76359
76388
76380
76378
76391
76395
76395
76424
76422
76442
76444
76443
76450
76445
76452
76411
76317
76222
76173
76133
76118
76111
76124
76167
76156
76173
76207
76213
76262
76245
76253
76258
76255
76247
76264
76262
76279
76291
76293
76306
76314
76331
76341
76357
76345
76371
76375
76308
76205
76138
76105
76071
76087
76098
76114
76138
76153
76189
76214
76234
76243
76245
76254
76261
76255
76265
76258
76287
76297
76308
76329
76333
76326
76366
76365
76392
76399
76388
76318
76210
76161
76099
76086
76072
76092
76102
76137
76177
76174
76217
76250
76247
76246
76251
76261
76277
76272
76276
76298
76306
76298
76292
76294
76335
76332
76354
76371
76361
76368
76283
76171
76114
76082
76050
76043
76053
76076
76068
76087
76124
76135
76162
76189
76175
76177
76189
76170
76184
76179
76183
76173
76193
76194
76207
76223
76243
76249
76254
76254
76260
76271
76268
76187
76077
76035
75989
75976
75976
75956
75984
76029
76032
76074
76075
76120
76119
76108
76113
76089
76122
76134
76130
76165
76134
76173
76162
76168
76200
76208
76227
76240
76253
76268
76288
76312
76335
76247
76156
76078
76050
76023
75997
76030
76042
76077
76095
76119
76138
76170
76170
76171
76174
76201
76194
76201
76230
76239
76234
76242
76255
76285
76290
76287
76322
76337
76339
76339
76375
76352
76250
76161
76104
76060
76059
76036
76044
76074
76077
76125
76131
76149
76194
76193
76183
76187
76177
76190
76196
76202
76218
76230
76246
76245
76277
76276
76272
76296
76311
76293
76318
76316
76328
76273
76184
76077
76028
76020
75980
75995
76005
76021
76052
76086
76087
76104
76135
76142
76158
76153
76155
76145
76164
76167
76183
76200
76227
76217
76238
76237
76246
76250
76276
76286
76314
76299
76275
76212
76140
76079
76062
76052
76067
76103
76102
76137
76196
76204
76222
76253
76252
76264
76267
76282
76296
76323
76309
76321
76347
76359
76359
76377
76385
76399
76409
76430
76445
76381
76278
76222
76176
76163
76141
76159
76176
76182
76192
76224
76250
76291
76296
76286
76301
76306
76323
76309
76303
76329
76333
76347
76374
76382
76366
76394
76406
76415
76435
76417
76314
76254
76170
76128
76106
76102
76119
76099
76125
76140
76151
76190
76183
76188
76194
76202
76199
76194
76197
76207
76212
76212
76224
76242
76246
76247
76273
76272
76286
76285
76292
76288
76224
76106
76024
75968
75910
75883
75877
75858
75796
75742
75666
75573
75468
75369
75299
75266
75280
75296
75268
75233
75230
75162
75129
75114
74968
74970
74995
75016
75023
75046
75062
75037
74992
74945
74916
74903
74919
74972
75019
75003
75026
75063
75055
75027
75028
75006
75011
74983
75003
74989
75017
75002
75026
75034
75046
75140
75194
75295
75353
75351
75315
75297
75295
75288
75299
75313
75303
75338
75358
75388
75418
75445
75484
75501
75516
75552
75556
75579
75604
75619
75644
75656
75719
75766
75783
75741
75674
75585
75522
75500
75501
75481
75509
75529
75578
75637
75677
75689
75678
75653
75620
75616
75596
75593
75576
75565
75554
75536
75544
75531
75548
75510
75455
75424
75395
75425
75446
75469
75491
75495
75545
75570
75620
75666
75705
75710
75720
75706
75703
75750
75747
75793
75828
75835
75844
75858
75844
75781
75680
75648
75600
75585
75587
75594
75613
75634
75664
75695
75728
75746
75772
75761
75767
75804
75808
75808
75824
75841
75846
75839
75838
75797
75718
75650
75615
75597
75628
75606
75670
75755
75779
75833
75820
75776
75817
75739
75637
75457
75230
75067
74917
74692
74501
74402
74320
74278
74160
74070
73926
73833
73754
73679
73600
73616
73634
73651
73642
73639
73679
73706
73758
73760
73791
73683
73784
73853
73919
73950
73974
73992
74009
74000
73957
73903
73876
73854
73862
73860
73870
73872
73886
73898
73932
73938
73969
73986
74016
74026
74018
74004
74022
74007
74026
74065
74084
74142
74136
74071
73963
73916
73887
73878
73863
73889
73892
73919
73942
73961
73992
74025
74040
74055
74085
74090
74098
74071
74129
74176
74199
74234
74208
74146
74087
73982
73854
73798
73731
73700
73681
73706
73729
73749
73823
73875
73914
73942
73944
73974
74004
74058
74139
74193
74215
74193
74137
74088
74076
74087
74165
74245
74349
74462
74560
74715
74763
74762
74760
74810
74780
74762
74760
74766
74770
74821
74875
74862
74834
74765
74699
74635
74593
74564
74555
74547
74556
74558
74581
74588
74603
74609
74631
74655
74679
74713
74746
74792
74828
74846
74799
74730
74642
74578
74527
74497
74489
74486
74501
74516
74573
74611
74610
74561
74577
74627
74642
74654
74678
74706
74751
74770
74768
74719
74657
74638
74639
74662
74704
74744
74793
74814
74831
74857
74856
74873
74871
74889
74908
74892
74908
74949
74961
74979
74973
74926
74883
74831
74814
74810
74830
74864
74871
74897
74956
74992
74994
74975
74991
74969
74958
74939
74950
74933
74931
74942
74889
74841
74764
74658
74657
74673
74688
74740
74766
74754
74832
74881
74915
74974
75017
75015
75034
75042
75049
75067
75095
75083
75023
74949
74912
74887
74879
74907
74944
74951
75031
75069
75117
75146
75198
75215
75238
75263
75276
75301
75324
75338
75331
75269
75165
75079
75040
75010
75005
75009
75054
75037
75094
75122
75145
75170
75199
75227
75256
75269
75305
75279
75286
75225
75119
75039
74949
74880
74891
74899
74904
74962
74974
75011
75067
75096
75103
75080
75092
75082
75099
75102
75080
75029
75040
74937
74843
74814
74775
74751
74765
74787
74847
74883
74903
74951
74979
75003
75052
75067
75140
75193
75187
75162
75131
75104
75017
74875
74822
74777
74702
74702
74721
74753
74762
74777
74803
74815
74834
74824
74850
74835
74867
74881
74868
74883
74861
74756
74652
74605
74593
74564
74565
74568
74616
74640
74669
74693
74694
74690
74684
74689
74686
74702
74700
74690
74659
74578
74482
74424
75448
79037
77877
75191
72998
75763
75133
74373
74774
74712
74650
74609
74465
74186
73440
72742
72301
72157
72155
72163
71824
71148
70775
70690
70668
70484
70324
70496
70582
70711
70756
70791
70845
70967
71116
71158
71157
71161
71271
69474
69195
68916
68823
68798
68802
68822
68884
68928
68978
69012
69034
69042
69058
69071
69119
69183
69199
69135
68993
68847
68897
69035
69264
69338
69489
69505
68638
68546
68815
69139
69499
69709
69745
69785
69844
69874
69892
69845
69707
69623
69603
69604
69655
69679
69742
69795
69865
69992
70103
70147
70174
70177
70133
69875
69508
69077
69447
70002
69981
69659
69480
69380
69232
69284
69895
72649
74601
75658
72453
73371
73896
74386
74056
73544
72928
72229
71936
72039
71615
71433
71422
71419
71434
71471
71574
71694
71822
71905
71903
71946
71967
71935
72052
72022
71913
71642
71439
71401
71252
71242
71263
71438
71540
71789
71859
71972
72009
72056
72058
72032
71991
71978
72001
72064
72130
72164
72119
72041
72088
72061
72304
72784
73234
72684
71937
71803
71418
70693
69887
68974
68287
68003
67880
67769
67727
67741
67695
67427
67172
67313
67554
68029
68324
68412
68422
68346
68299
68253
68244
68102
67998
67953
67888
67777
67726
34690
67713
67709
67688
67721
67727
67736
67794
67867
67923
67937
67974
68001
68079
68101
68162
68196
68243
68250
68242
68241
68204
68123
68010
67960
67932
67893
67895
67871
67866
67886
67956
67986
68023
68063
68049
68059
68068
68094
68079
68117
68095
68046
67932
67889
68197
68781
69076
69242
69434
69654
69857
69886
69853
69806
69702
69649
69567
69476
69439
69403
69417
69396
69418
69469
69448
69425
69390
69413
69405
69429
69432
69468
69461
69453
69443
69438
69424
69420
69405
69382
69251
69120
68921
68803
68778
68483
68133
67896
67666
66419
66622
66600
66498
66413
66349
66810
67083
67216
67088
67078
67097
67110
67134
67269
67427
67633
67626
67453
67453
67536
67580
67615
67384
67162
67412
67783
68151
68561
68789
68702
68533
68346
68203
68128
68107
68100
68047
67901
67375
66943
66661
66536
66389
66041
66191
65611
66162
66209
66517
68494
70098
70067
66783
66461
64879
67891
68718
66124
68031
67782
67155
67100
66985
67086
67137
67181
67109
67077
67007
66938
66915
66837
66851
66763
66719
66780
66816
66637
66443
66444
66491
66507
66589
66535
66064
66094
66128
66105
66074
66086
66151
66254
66294
65852
64973
64495
66228
66367
66339
66347
66077
65966
65840
65988
66233
66432
66514
66680
66757
66842
66906
66944
66991
67028
67028
67044
67005
67008
67038
67027
67135
67246
67427
67555
67705
67750
67773
67842
67890
67962
68076
68251
68435
68598
68722
68953
69130
69205
69199
69280
69369
69450
69523
69593
69680
69789
69908
69975
70021
70093
70204
70321
70457
70597
70732
70859
70988
71111
71184
71251
71332
71362
71393
71414
71430
71438
71486
71540
71577
71562
71537
71507
71497
71525
71547
71580
71637
71710
71750
71814
71869
71905
71920
71886
71799
71850
71839
71884
72042
72104
72042
71993
71998
72023
72030
72055
72078
72098
72131
72231
72300
72415
72518
72606
72649
72697
72718
72721
72723
72720
72710
72678
72611
72568
72574
72573
72588
72596
72611
72625
72656
72687
72675
72653
72658
72636
72617
72608
72620
72598
72604
72648
72665
72569
72410
72296
72135
72051
71887
71613
71324
71215
71262
71256
71096
70928
70961
70928
70914
70926
70894
70760
70693
70823
71161
71755
71889
71893
71870
71957
71972
72114
72314
72660
72850
72917
72938
72928
72895
72854
72851
72865
72871
72855
72918
72946
72973
72987
72959
72951
72982
72999
73039
73008
72986
72801
72671
72550
71786
71488
71320
71209
71232
71399
71396
71068
70880
70918
71002
71047
71074
71106
71151
71243
71268
71326
71431
71516
71596
71645
71729
71808
71899
71963
72009
72017
72019
71990
71987
71966
71985
71966
71922
71881
71826
71823
71831
71853
71881
71913
71902
71870
71877
71819
71732
71721
71719
71738
71769
71831
71953
72064
72179
72265
72291
72300
72340
72337
72322
72378
72387
72454
72516
72568
72611
72715
72739
72688
72678
72713
72760
72798
72794
72806
72747
72505
72425
72308
72311
72205
71929
71715
71599
71659
71617
71600
71616
71596
71601
71635
71609
71678
71818
71916
71986
71981
72003
72075
72216
72361
72371
72132
71562
71414
71448
71419
71398
71419
71419
71547
71692
71752
71824
71776
71889
71961
72020
72085
72093
71981
71992
72424
73782
75081
75747
76310
76164
76362
69006
74084
75596
75588
75095
74235
73943
74191
73865
73782
73672
73505
74004
73981
73847
73939
73874
73834
73732
73728
73733
73774
73811
73819
73897
73952
73923
73808
73817
73760
73766
73798
73868
73920
73894
74028
74191
74342
74330
74309
74303
74289
74327
74398
74453
74465
74402
74292
74216
74241
74273
74342
74415
74488
74560
74634
74661
74726
74720
74620
74559
74480
74450
74395
74373
74383
74359
74311
74239
74149
74096
74149
74271
74423
74591
74763
74839
74820
74814
74621
75228
75538
75392
75306
75353
75437
75475
75471
75518
75597
75624
75673
75795
75854
75852
75883
75922
75971
76049
76088
76107
76162
76273
76338
76352
76301
76174
76125
76128
76088
76072
76118
76133
76200
76242
76265
76322
76412
76518
76599
76652
76593
76650
76728
76735
76646
76590
30234
76573
76554
76583
76708
76725
76749
76827
76939
77007
77050
76992
77015
77136
77055
75984
76202
76877
76487
76284
75957
75933
75665
75431
74990
74732
74683
74652
74563
74499
74386
74214
74170
74087
73606
73267
73223
73154
72992
72889
72765
72615
72442
72320
72235
72289
72311
72282
72194
72201
72168
72030
71908
71765
71699
71780
71880
71957
72037
72177
72228
72221
72369
72544
72567
72617
72745
72781
72806
72863
72832
72613
72380
72274
72162
72135
72191
72222
72170
72111
72102
72038
71998
72004
72009
71960
71989
72030
72002
71943
71932
71911
71962
72049
72046
72047
72094
72148
72115
72150
72188
72188
72253
72526
72835
73068
73274
73272
73453
73561
73462
73188
73047
73074
73032
73040
73110
73151
73163
73214
73348
73471
73544
73645
73662
73730
73754
73753
73819
73989
74064
74144
74264
74307
74304
74350
74425
74501
74478
74459
74421
74400
74354
74296
74194
74169
74198
74154
74066
74138
74204
74156
74161
74287
74372
74368
74449
74698
74764
74671
74632
74652
74620
74447
74413
74415
74455
74518
74592
74675
74699
74754
74780
74737
74727
74753
74800
74819
74837
74895
74890
74853
74916
74916
74887
74880
74854
74808
74756
74864
74872
74785
74765
74774
74837
74862
74716
74555
74428
74376
74279
74188
74111
74080
74075
74080
74083
74026
74033
74032
74002
73996
74031
73964
73864
73834
73802
73736
73715
73780
73777
73710
73709
73715
73707
73654
73615
73586
73618
73592
73555
73462
73394
73317
73325
73350
73366
73325
73300
73267
73291
73287
73276
73242
73243
73216
73173
73141
73079
73004
72950
72944
72965
72977
73029
73037
73060
73031
73054
73067
73127
73189
73161
73164
73177
73206
73135
73101
73109
73108
73121
73166
73185
73168
73140
73137
73155
73162
73148
73145
73166
73181
73239
73405
73612
73863
74060
73693
73462
73366
73278
73284
73343
73393
73419
73481
73536
73595
73681
73646
73585
73553
73581
73610
73608
73620
73626
73666
73709
73735
73788
73903
74025
74136
74287
74321
74313
74224
74098
74096
74030
73986
74069
74110
74077
73976
73892
73937
74004
74022
74010
74019
74051
74058
73964
73944
73960
73950
73967
74039
74062
74037
74055
74005
73966
73847
73717
73634
73515
73475
73394
73149
73037
73039
73132
73197
73209
73246
73324
73411
73508
73512
73508
73568
73608
73702
73792
73834
73860
73861
73922
73987
74066
74124
74189
74308
74383
74393
74406
74481
74552
74600
74652
74624
74380
74183
74054
73910
73782
73465
72984
72846
73028
71444
69950
69482
69361
69249
69242
69277
69276
69238
69211
69185
69229
69264
69361
69574
69270
68977
69029
69068
69075
69078
68665
68727
68757
68749
68673
68618
68619
68658
68651
68707
68764
68748
68777
68794
68784
68785
68822
68834
68807
68803
68736
68670
68622
68623
68648
68651
68688
68710
68693
68703
68713
68694
68707
68905
69041
69218
69451
69502
69698
69925
70208
70418
70500
70675
70783
70888
71049
71234
71381
71764
72140
70646
72497
72388
72296
72479
72565
72615
72734
72879
73013
73057
73015
72982
73023
73100
73090
73126
73247
73259
73194
73082
73105
73177
73185
73161
73252
73251
73233
73287
73197
73112
73129
73364
73262
73211
73224
73082
72901
72985
72999
72699
72603
72766
72827
72658
72541
72503
72442
72197
71937
71860
71580
71265
71129
71180
71149
71240
71445
71614
71628
71754
72061
72221
72192
72201
72267
72375
72460
72460
72464
72576
72686
72804
72917
72946
72928
72974
73054
73111
73113
73108
72961
73046
73151
72856
71749
70596
69794
69538
68181
68355
68558
68516
68579
68615
68643
68646
68700
68717
68793
68822
68677
68597
68552
68528
68550
68583
68663
68667
68690
68769
68802
68830
68853
68863
68905
68895
68895
68969
69143
69458
70170
71386
71367
70870
71328
71577
71674
71616
71656
71802
71955
72199
71867
71408
71245
70041
69773
69788
69801
69738
69777
69856
70194
70323
70371
70432
70442
70440
70364
70194
70031
69919
69743
69688
69639
69682
69699
69744
69831
69916
69984
69992
70030
70051
70045
69973
69874
69809
69766
69801
69789
69799
69834
69832
69831
69841
69858
69840
69824
69868
69958
70020
70108
70217
70203
69807
70030
70156
70646
72423
72520
72628
72326
72123
72036
72001
72053
72027
71946
71941
71949
72008
72025
72078
72168
72255
72362
72503
72603
72627
72631
72625
72666
72673
72621
72575
72616
72697
72735
72804
72876
72949
72936
72939
72966
73223
73456
73390
73355
73215
73062
72935
72751
72631
72599
72345
72325
72391
72267
72037
71945
71933
71727
71294
71093
71106
70896
70770
70973
71001
71029
71182
71474
71611
71631
71733
71818
71889
71942
71980
71959
71988
72154
72249
72145
72199
72461
72639
72699
72734
72839
73003
73130
73150
73201
73345
73497
73509
73507
73548
73591
73598
73484
73409
73295
72942
72669
72427
72120
71681
71160
69583
69947
69791
69723
69594
69466
69380
69370
69399
69494
69545
69543
69537
69479
69442
69444
69448
69437
69400
69435
69468
69489
69533
69944
70618
71308
71796
72435
72367
72309
72483
72571
72584
72753
72840
72772
72637
72529
72524
72639
72694
72671
72696
72776
72781
72766
72832
72888
72954
72928
73035
73080
73044
73049
73025
72952
72967
73088
73107
73065
73110
73142
73136
73063
73072
73120
73131
73108
73095
73079
73022
73042
73085
73077
73058
73124
73213
73201
73124
73192
73333
73421
73363
73177
72980
73173
72966
72962
72915
72918
72986
72986
72949
72916
72912
72941
72944
72996
73040
73073
73025
73027
73077
73090
73171
73306
73348
73373
73364
73321
73222
73091
72917
72797
72680
72570
72506
72418
72216
71956
71805
71709
71588
71371
71079
70909
70709
70611
70551
70473
70385
70339
70259
70154
70110
70044
69979
69958
70034
70034
70015
69969
69952
70013
70032
70017
69996
70022
70037
69986
69891
69834
69852
69847
69867
69843
69819
69832
69842
69850
69861
69905
70001
70043
70050
70013
70037
70058
70065
70116
70111
70134
70223
70322
70249
70221
70245
70117
70155
70303
70586
71025
71851
72699
73382
73953
74552
74963
75229
75616
76244
76455
76519
76496
76400
76443
76429
76328
76348
76307
76169
76091
76014
76023
75916
75566
75230
75345
75335
75475
75802
75846
75663
75586
75598
75785
75951
75888
75923
76124
76136
75985
75955
75952
75871
75818
75965
76010
75850
75812
75851
75785
75702
75743
75825
75950
75969
75968
75992
75940
75599
75276
75389
75446
75487
75520
75578
75635
75649
75719
75826
75860
75866
75906
76038
76114
76158
76295
76368
76392
76325
76328
76328
76329
76409
76418
76423
76450
76276
75534
74388
73438
72082
71975
71777
72061
73845
73922
73840
74249
75083
75482
75719
75897
75955
75960
76021
76069
76173
76352
76773
76539
76589
76616
76652
76628
76624
76628
76640
76599
76587
76510
76380
76419
76355
76202
76027
75726
75388
75193
75046
74898
74794
74726
74517
74358
74239
74042
73874
73689
73486
73363
73270
73171
73076
72993
72969
72942
72941
72910
72897
72833
72758
72753
72768
72681
72576
72528
72468
72380
72351
72326
72284
72228
72225
72155
72189
72200
72117
72069
72069
72090
72052
72086
71983
71923
71862
71870
71901
71893
71907
71974
72056
72029
71997
72026
71963
71951
71997
72018
71949
72001
72096
72137
72141
72178
72106
72151
72237
72342
72461
72590
72748
73007
73415
73873
74034
73787
73472
73353
73136
72955
72797
72759
72651
72492
72437
72488
72563
72642
72736
72901
72962
72794
72744
72870
72789
72891
73033
73106
73122
73173
73206
73209
73437
73643
73665
73694
73707
73729
73787
73822
73961
73966
73977
73944
73916
73961
74036
73947
71837
70308
70046
69088
69096
69170
69291
69454
69618
69742
69860
69936
70044
70114
70125
70166
70246
70307
70358
70395
70411
70488
70639
70762
70888
71022
71155
71203
71280
71350
71424
71503
71566
71669
71728
71714
71664
71710
71755
71813
71890
71934
72053
72421
72457
72431
72275
72186
72127
72031
71999
71789
71606
71475
71314
71202
71192
71213
71246
71266
71295
71286
71334
71430
71460
71659
71904
71938
71792
71757
71760
71721
71703
71695
71652
71619
71604
71555
71526
71544
71541
71542
71617
71719
71711
71734
71829
71889
71866
71980
72067
72074
72062
71984
71951
71913
71892
71914
71934
71864
71854
71945
71953
71956
71703
69833
60969
50909
46561
45111
44311
43902
43209
42290
41624
41241
41059
40869
40655
40498
40490
40581
40062
39282
38989
39403
39975
40015
39760
38463
37421
37024
37604
38493
39838
41505
43161
44728
46094
47450
49186
51171
53186
54911
55561
56322
57716
59019
60185
62290
66263
68564
70189
71094
71212
70385
69128
68060
66486
64746
63327
62282
61757
61206
60676
60137
59909
59899
59762
59496
59294
59128
59031
59027
59167
59284
59232
59132
59160
59291
59230
59404
59819
60261
60274
60050
59835
59528
59349
59200
59176
59224
59311
59329
59391
59487
59455
59321
59223
59218
59290
59349
59373
59397
59384
59412
59396
59315
59250
59204
59273
59352
59369
59272
59241
59362
59675
60086
60680
61212
61608
61721
61701
61791
62087
62895
64925
68088
70146
71362
71731
71554
70820
69171
66669
64577
70262
71703
71684
71544
71390
71207
71081
70975
70877
70774
70691
70705
70605
70496
70553
70671
70771
70779
70752
70827
70919
70888
70754
70632
70538
70463
70392
70258
70055
69911
69933
70351
71095
71533
71408
71242
71080
70856
70620
70569
70917
71140
71252
71204
71119
70914
70738
70643
70559
70431
70223
70031
69761
69446
69123
68965
69174
69956
71081
71357
71351
71261
71125
70928
70882
70890
70868
70770
70696
70751
70829
70798
70769
70807
70920
71107
71354
71515
71316
71151
70797
70189
69794
69522
69261
69076
69072
69184
69177
68936
68719
68829
68850
68796
68703
68450
67856
63640
53993
49085
47728
47590
48177
48067
47913
47210
46886
46896
46184
45510
45097
45007
44792
44348
44009
43992
44001
43922
44217
44818
45425
46215
47057
47612
48026
48410
48960
49151
49382
49970
50776
51515
52130
52509
52676
52460
51914
51486
51128
51126
51573
52346
53027
55272
62174
68781
70927
71426
71630
71683
71472
71272
71205
71144
71118
71076
71044
71101
71298
71587
71880
71989
72054
72139
72135
72116
72138
72125
72166
72218
72234
72241
72204
72191
72189
72168
72219
72256
72318
72334
72424
72463
72494
72481
72528
72564
72633
72715
72732
72687
72649
72639
72595
72592
72581
72583
72571
72575
72575
72553
72545
72533
72569
72563
72580
72593
72537
72505
72484
72463
72451
72473
72545
72562
72545
72500
72564
72578
72600
72587
72593
72586
72538
72422
72271
72122
72046
72012
71962
71845
71798
71783
71743
71780
71839
71943
71919
71725
71448
70978
70195
69062
67642
65637
63209
61104
59321
57714
56300
55657
55857
56429
57295
58312
59279
60233
61249
62504
63616
64155
63687
62347
60020
56763
53911
52530
51929
51139
50809
49349
49471
49258
48608
48042
48223
49620
51663
52714
54358
58532
66192
69978
71648
72202
72398
72266
71552
69703
65525
60458
57331
54898
56886
55425
53684
54474
54558
53798
52758
52543
52960
53347
53357
52705
52426
52448
52407
52163
51868
51386
50283
49024
48118
47294
47421
48474
49627
50298
51049
51712
52488
53250
53752
54291
55203
56189
57146
57736
57837
57468
56913
56537
56358
56292
56437
57053
58315
59909
62208
65238
68478
71144
73124
74310
74898
75276
75504
75772
76032
76263
76440
76611
76676
76692
76683
76486
76113
75939
75977
75935
75804
75814
75932
75912
75928
75911
75951
76001
76112
76177
76263
76539
76729
76812
76462
76218
75742
75434
75173
75140
75083
74834
74470
74208
74040
74036
74277
74454
74441
75596
76137
76429
76286
76723
76554
76465
76165
74919
74839
75249
75548
75104
74896
74156
73857
73814
73690
73681
73734
73755
73762
73788
74254
74312
74374
75298
71049
67292
67401
66226
65630
65417
64706
64397
63741
62967
62203
61014
60021
59558
59052
58352
56813
55788
55557
54759
54300
54033
53729
53099
52479
51794
50725
50021
49502
49341
48992
47994
54300
47157
48220
49609
49768
50168
51955
52951
52341
52480
52712
52682
52455
52222
51653
50984
50396
50126
49956
49188
47747
47427
47599
48013
48031
48392
49366
50092
50703
51057
51286
51747
51815
51613
51485
51324
51257
50905
50129
49612
50072
50421
51114
54360
59036
62685
64231
64385
63708
61332
57886
55254
54917
57192
60740
61684
61673
61547
61163
60929
61008
61200
60957
60345
59588
58468
57450
57529
57234
56959
56519
56073
55685
55502
55541
55570
55410
55113
54568
53920
53532
53183
52781
52335
51915
51650
51259
50828
50550
50286
49995
49685
49446
49228
48860
48457
48193
48138
48115
48109
47913
47728
47503
47377
47269
47184
47273
47250
47176
47097
47041
46885
46697
46415
46436
46757
46791
46143
45599
45720
45619
45040
44542
44222
43987
43676
43357
43204
42943
42172
40614
39497
39703
39218
38055
36933
41613
37412
38756
40133
40840
40215
39871
41065
42492
43384
43946
44629
45486
46324
46472
46537
46345
45685
45015
44685
44420
44183
44562
43741
43305
44172
45358
45493
45294
45333
45223
44966
44787
44969
44708
43992
43147
43020
43025
42635
43181
44149
45581
46379
47070
48059
49311
50604
51325
51420
51146
51104
51394
51035
49806
48223
49107
63691
72360
72957
72969
73083
73163
73162
73075
72475
64519
52564
51333
51426
51647
51666
51498
50945
50194
49725
49251
48967
50908
60323
69693
72426
72884
72404
68481
59513
55172
55007
54816
54162
53846
54123
53822
53220
52009
52116
56245
69713
75112
75581
75748
75809
75818
75782
75762
75632
75051
69421
59624
54655
53412
53203
52936
53310
55210
62706
72406
74729
75002
74967
75025
75118
75152
75152
74977
73906
64297
54475
53015
52834
52834
52755
52446
51918
51560
51399
53088
60144
67914
71817
72493
71306
65743
56262
51431
51601
51971
51654
50598
49762
49538
49269
48894
48111
47646
47885
49892
56189
61768
63351
60973
55905
52617
52404
52980
52860
52529
52707
52785
52642
52321
52410
56461
68996
74067
74554
74763
74914
74969
74995
75051
74691
70462
62345
60060
60443
60984
60860
60090
59273
59223
65090
73708
75663
75494
75569
75837
75726
75466
74721
69306
59832
56667
56341
56508
55856
54786
53669
53628
56811
65564
73108
74483
74445
74261
74249
74092
72329
64161
57581
56821
57103
57084
57072
56950
56698
56468
56399
58036
65292
72742
75022
75195
75011
74003
69000
60840
55650
54658
54721
54985
55384
55206
54976
58408
68771
74473
74948
75013
74947
74844
74816
74836
74782
74661
74522
73665
69362
62896
58978
57866
58852
61892
67770
72840
73863
74044
74090
74052
73970
73777
73620
73245
68864
56194
49268
47540
46930
46725
46531
46452
46903
49520
58142
68011
72346
73015
73005
72722
69894
58418
48271
47305
47301
47455
47636
47801
47700
47478
47497
47236
46734
48024
57592
68517
72708
73345
73314
72218
67267
58563
52098
50356
50062
50218
50518
50845
51774
57220
69173
74403
74670
74747
74894
74916
74843
74898
74966
75032
75018
74855
74113
70996
67487
66261
67817
71254
73943
74477
74613
74803
74930
74883
74774
74729
74619
74309
73251
67724
59743
54785
52919
53062
55231
60115
67724
72998
74313
74862
75063
75163
75315
75474
75616
75424
74544
67133
56732
52869
53399
53479
53149
53079
55607
63385
72186
75140
75750
75941
75923
75914
75978
75836
73334
63784
55776
53316
53516
54057
55689
61468
71248
75906
76235
76105
76085
76233
76296
76111
75864
75850
75926
75701
75331
74903
74686
74794
74982
74769
74550
74310
74109
73832
73551
73410
73338
73072
72789
72530
72395
72231
72056
71848
71429
70899
70428
70350
70385
70247
69825
68848
66950
64268
61261
58278
55557
53161
51139
49620
48563
47649
46822
46137
45937
46032
46267
46568
47051
47806
48755
49753
51231
53032
55065
57792
61373
65352
69078
72191
74270
75102
75402
75515
75580
75634
75668
75697
75688
75674
75592
75524
75442
75359
75297
75253
75304
75355
75381
75368
75357
75333
75309
75292
75306
75315
75321
75350
75356
75360
75361
75353
75388
75411
75463
75493
75562
75659
75727
75733
75726
75815
75888
75877
75835
75786
75773
75774
75791
75795
75806
75826
75830
75925
76026
76053
76039
76031
76012
76020
76028
75964
75888
75742
75512
75127
74252
72799
70868
68905
67430
66794
67055
67965
69222
70651
72053
73197
74028
74651
75131
75452
75696
75925
76167
76376
76471
76551
76625
76707
76742
76746
76730
76771
76829
76857
76923
77003
77155
77252
77354
77629
77935
78215
78366
78442
78492
78486
78428
78356
78371
78432
78456
78568
78673
78734
78788
78800
78809
78795
78796
78801
78784
78750
78786
78694
78680
78443
78224
78319
78248
78269
78335
78701
78764
78785
78791
78783
78800
78729
78549
78351
78243
78195
78123
78016
78066
78267
78375
78381
78368
78295
78209
78066
77866
77671
77521
77468
77475
77461
77480
77464
77498
77478
77447
77472
77446
77460
77479
77456
77263
77208
77301
77324
77305
77287
77298
77331
77394
77412
77401
77391
77421
77461
77470
77465
77498
77512
77474
77442
77451
77490
77497
77510
77543
77562
77579
77562
77558
77544
77495
77463
77482
77488
77448
77341
77311
60929
77617
77781
77922
77951
77890
77906
77896
77882
77895
77918
77953
77982
78002
78009
78024
78047
78022
78004
78026
78035
78007
77954
77940
77955
77955
77962
77953
77963
77952
77943
77938
77914
77878
77863
77916
78022
78205
78379
78458
78461
78477
78535
78621
78711
78742
78842
78904
78975
79039
79096
79170
79251
79306
79376
79425
79489
79556
79621
79695
79777
79833
79913
79977
80050
80106
80160
80198
80251
80303
80316
80331
80336
80356
80344
80350
80414
80454
80468
80482
80510
80506
80502
80504
80484
80488
80472
80389
80336
80264
80197
80186
80166
80163
80186
80214
80225
80239
80245
80239
80253
80266
80265
80265
80229
80171
80115
80070
80060
80078
80079
80120
80154
80151
80171
80198
80178
80176
80172
80134
80113
80045
79982
79952
79910
79917
79896
79873
79843
79811
79808
79759
79748
79716
79755
79871
79986
80028
80060
80051
80038
80044
80061
80089
80112
80145
80168
80180
80191
80193
80202
80209
80211
80215
80176
80162
80141
80124
80081
80099
80109
80076
80095
80125
80105
80119
80129
80139
80146
80157
80137
80122
80131
80100
80080
80087
80096
80109
80099
80126
80127
80136
80166
80131
80159
80154
80158
80166
80146
80097
80049
80030
80022
80026
80054
80067
80093
80107
80104
80132
80151
80154
80176
80186
80221
80221
80174
80161
80162
80153
80141
80121
80137
80139
80130
80114
80141
80122
80089
80085
80131
80163
80210
80173
80154
80117
80105
80110
80114
80097
80107
80097
80108
80135
80128
80111
80112
80118
80128
80132
80119
80059
80011
80006
79939
79917
79892
79895
79871
79820
79800
79788
79771
79748
79743
79713
79663
79652
79586
79539
79478
79437
79421
79425
79441
79410
79400
79367
79315
79238
79239
79190
79162
79131
79093
79036
78984
78946
78949
78937
78870
78688
78530
78511
78436
78341
78314
78282
78257
78217
78172
78182
78155
78179
78192
78177
78146
78148
78200
78259
78238
78215
78233
78293
78333
78377
78444
78545
78649
78756
78897
79054
79237
79362
79527
79717
79856
79860
79868
79824
79893
79874
79868
79880
79898
79874
79842
79774
79772
79775
79727
79672
79616
79581
79569
79565
79569
79543
79552
79528
79488
79403
79253
79150
79104
79111
79114
79055
78967
78815
78661
78553
78525
78561
78629
78699
78774
78767
78731
78655
78555
78426
78325
78275
78254
78249
78261
78286
78351
78385
78387
78364
78362
78362
78336
78346
78335
78342
78342
78315
78340
78417
78476
78588
78673
78723
78707
78712
78804
78914
78941
78931
78946
78960
78965
78933
78878
78840
78832
78838
78870
78834
78898
78927
78965
79006
79138
79153
79176
79169
78930
78504
78203
77707
78768
78499
78283
77855
77608
77504
77457
77390
77353
77350
77267
77163
77039
77199
77282
77589
77757
77668
77538
77236
76960
76688
76777
76746
77061
77184
77196
77343
77335
77340
77321
77307
77358
77413
77494
77578
77645
77665
77697
77692
77683
77638
77605
77539
77514
77485
77375
77275
77286
77268
77299
77311
77390
77348
77365
77414
77425
77404
77359
77366
77350
77321
77309
77272
77271
77227
77178
77169
77154
77171
77182
77181
77229
77238
77283
77253
77205
77188
77153
77135
77102
77040
76994
76911
76856
76823
76840
76933
77012
77063
77120
77180
77201
77241
77289
77328
77376
77366
77325
77292
77225
77203
77221
77222
77218
77246
77236
77272
77297
77322
77338
77327
77312
77286
77290
77285
77241
77204
77187
77148
77166
77164
77207
77239
77284
77356
77426
77461
77438
77429
77419
77395
77421
77366
77406
77315
77296
77384
77398
77399
77435
77473
77538
77578
77671
77708
77702
77670
77654
77587
77510
77480
77451
77412
77376
77346
77338
77355
77409
77478
77564
77629
77662
77666
77675
77692
77729
77728
77698
77693
77687
77699
77593
77594
77805
77906
77961
78036
78073
78152
78169
78157
78111
78078
77986
77934
77918
77862
77859
77826
77785
77719
77792
77840
77890
77938
77954
77995
78029
78081
78121
78088
78041
78012
77985
77919
77935
77873
77811
77747
77754
77746
77792
77820
77836
77982
78047
78072
78002
77903
77880
77934
77946
35258
77936
77916
77892
77842
77867
77852
77887
77897
77933
77963
78012
78103
78155
78129
78137
78162
78184
78215
78249
78237
78232
78232
78154
78146
78145
78157
78216
78301
78348
78319
78336
78258
78231
78241
78227
78179
78192
78154
78148
78090
77945
77799
77850
77878
77881
77890
77950
77976
78021
78086
78098
78171
78222
78285
78265
78252
78082
78008
77930
77879
77887
77923
77947
77958
78008
78117
78194
78177
78133
78134
78112
78129
78172
78165
78121
78111
78071
78045
78058
78077
78071
78076
78089
78163
78238
78259
78294
78320
78321
78321
78314
78318
78358
78332
78293
78241
78281
78352
78364
78411
78482
78449
78379
78372
78319
78345
78427
78455
78464
78473
78480
78446
78445
78438
78427
78423
78460
78423
78448
78455
78396
78342
78302
78276
78246
78260
78252
78314
78384
78409
78391
78232
78174
78204
78247
78285
78325
78431
78436
78375
78371
78367
78326
78310
78293
78265
78225
78113
78023
77964
77952
77968
77995
78028
78107
78143
78159
78210
78256
78243
78252
78266
78266
78198
78166
78126
78075
78052
78059
78114
78190
78274
78366
78446
78463
78458
78422
78414
78394
78410
78419
78418
78401
78341
78276
78264
78305
78352
78407
78394
78427
78444
78488
78482
78464
78425
78396
78395
78429
78469
78434
78338
78312
78322
78338
78343
78372
78418
78433
78475
78495
78471
78461
78443
78395
78368
78359
78294
78146
78037
77947
77947
78008
78077
78142
78238
78268
78270
78280
78277
78248
78236
78225
78203
78193
78127
77981
77901
77844
77895
77947
77979
78026
78129
78256
78321
78330
78337
78338
78306
78323
78318
78256
78169
78126
78118
78084
78097
78072
78111
78122
78150
78122
78150
78166
78161
78160
78135
78114
78047
78036
78037
78042
78043
77984
77971
78036
78062
78105
78133
78183
78232
78263
78254
78245
78185
78110
78037
77977
77956
77974
77943
77944
77952
77980
78023
78081
78101
78204
78254
78292
78329
78316
78265
78208
78181
78170
78189
78174
78195
78212
78201
78182
78116
78153
78181
78265
78317
78318
78401
78498
78554
78555
78492
78437
78221
78030
77941
77693
77632
78021
78409
78551
78231
77983
77743
77490
77496
77804
77816
77758
77663
77574
77361
77469
77659
77806
77906
77948
77959
78019
78002
78033
78103
78216
78227
78191
78050
77915
77698
77425
77162
77171
76919
76776
77068
77484
77517
77857
77773
77843
77543
77364
77408
76935
76976
78348
78816
78212
75477
73059
73530
74024
75223
75896
76619
76869
76715
76496
77052
77343
77053
76793
76460
75956
75275
75032
74849
74766
74717
74776
74880
74978
74964
74819
74746
74676
74650
74629
74565
74533
74516
74530
74577
74585
74633
74680
74678
74673
74679
74653
74596
74476
74432
74414
74391
74356
74348
74317
74316
74294
74303
74296
74297
74355
74369
74391
74409
74419
74396
74346
74285
74243
74237
74195
74022
74018
74001
74081
74142
74182
74267
74339
74415
74524
74644
74819
75160
75358
75479
75419
75258
75060
74979
74953
74958
75019
75013
75003
75042
75038
75008
75060
75107
75108
75060
74969
74781
74694
74678
74686
74667
74699
74779
74849
74935
74962
74972
74942
74920
74953
74941
74877
74712
74546
74361
74361
74336
74274
74268
74252
74291
74340
74371
74395
74417
74419
74441
74480
74483
74410
74346
74282
74265
74258
74268
74249
74300
74323
74362
74424
74434
74485
74516
74542
74581
74624
74600
74581
74593
74587
74629
74603
74605
74630
74669
74711
74749
74808
74890
74979
75011
75030
74995
74968
74936
74910
74900
74877
74855
74853
74842
74841
74843
74819
74831
74858
74899
74950
74985
74984
74954
74910
74836
74791
74772
74704
74643
74559
74474
74409
74421
74426
74426
74460
74488
74530
74530
74492
74465
74345
74308
74273
74251
74254
74284
74237
74230
74215
74258
74244
74273
74309
74325
74337
74376
74424
74347
74282
74243
74227
74201
74238
74310
74368
74505
74579
74578
74566
74550
74526
74527
74560
74632
74648
74632
74592
74597
74547
74526
74539
74557
74573
74586
74492
74407
74401
74357
74395
74409
74427
74460
74509
74524
74502
74474
74466
74448
74397
74416
74432
74374
74250
74062
74003
73978
74011
74067
74097
74171
74204
74134
74062
74043
74053
74073
74110
74143
74177
74205
74188
74120
74093
74101
74087
74108
74145
74170
74151
74219
74277
74322
74400
74470
74529
74603
74605
74623
74575
74569
74546
74517
74504
74525
74564
74614
74637
74615
74602
74608
74644
74673
74702
74793
74865
74911
74847
74747
74678
74665
74678
74695
74685
74705
74693
74727
74778
74782
74735
74738
74728
74729
74729
74675
74612
74573
74473
74469
74475
74480
74429
74436
74440
74442
74481
74513
74537
74532
74548
74549
74559
74584
74596
74602
74604
74586
74563
74519
74512
74531
74522
74564
74644
74714
74767
74793
74823
74820
74852
74902
74995
75043
75071
75005
74940
74928
74915
74913
74975
75022
75073
75060
75037
75029
75033
75067
75087
75092
75078
75048
74979
74877
74822
74835
74850
74905
74920
74976
75036
75090
75117
75109
75089
75068
75075
75084
75143
75106
74991
74796
74757
74754
74774
74794
74857
74914
74966
74995
74984
74920
74886
74882
74867
74892
74849
74816
74774
74730
74641
74594
74601
74629
74715
74765
74785
74824
74881
74909
74892
74888
74920
74903
74853
74819
74787
74769
74766
74721
74712
74718
74727
74758
74803
74832
74878
74928
74932
74944
74972
74962
74900
74860
74823
74813
74793
74801
74829
74818
74813
74826
74841
74864
74912
74949
74975
74964
74941
74891
74783
74737
74738
74720
74706
74662
74578
74534
74568
74620
74653
74704
74731
74766
74812
74803
74799
74700
74635
74590
74576
74603
74588
74518
74457
74435
74421
74408
74407
74420
74443
74455
74506
74541
74462
74337
74263
74214
74237
74300
74339
74386
74441
74414
74416
74422
74427
74436
74441
74465
74504
74513
74429
74357
74365
74379
74450
74508
74559
74657
74710
74706
74630
74600
74614
74619
74627
74632
74714
74755
74687
74639
74616
74618
74599
74640
74720
74717
74709
74655
74606
74592
74584
74597
74612
74634
74683
74724
74726
74652
74640
74637
74659
74679
74715
74706
74700
74622
74519
74424
74356
74367
74380
74390
74395
74358
74364
74315
74262
74247
74252
74309
74365
74420
74440
74479
74502
74477
74451
74394
74385
74432
74460
74428
74370
74342
74372
74434
74482
74556
74609
74658
74693
74762
74794
74766
74741
74684
74703
74704
74665
74675
74635
74655
74681
74692
74698
74705
74726
74734
74723
74771
74790
74759
74686
74627
74594
74602
74622
74660
74627
74657
74691
74746
74764
74753
74734
74685
74649
74628
74606
74527
74448
74358
74306
74309
74283
74218
74207
74189
74183
74217
74254
74326
74354
74377
74396
74442
74486
74547
74637
74704
74735
74699
74665
74625
74649
74622
74647
74667
74744
74827
74858
74858
74859
74888
74901
74968
75033
75055
74993
74890
74808
74776
74805
74799
74822
74826
74861
74905
74963
74960
74945
74900
74888
74912
74939
74940
74868
74751
74619
74555
74554
74576
74593
74616
74636
74629
74608
74650
74635
74638
74600
74592
74588
74541
74507
74458
74437
74429
74436
74448
74469
74509
74480
74503
74509
74555
74578
74591
74597
74605
74596
74549
74515
74570
74541
74580
74599
74615
74645
74698
74701
74721
74735
74785
74813
74847
74879
74855
74777
74678
74648
74669
74613
74599
74604
74460
74383
74334
74379
74388
74394
74436
74505
74570
74578
74545
74496
74459
74454
74446
74463
74456
74424
74353
74325
74279
74248
74251
74273
74284
74294
74327
74376
74397
74320
74270
74247
74241
74258
74296
74338
74368
74394
74399
74386
74376
74397
74429
74454
74487
74510
74482
74458
74411
74381
74414
74466
74521
74584
74623
74684
74738
74783
74816
74777
74715
74763
74822
74885
74869
74846
74833
74873
74858
74890
74928
74952
74969
74984
74979
74997
74974
74978
74946
74899
74839
74855
74844
74849
74832
74860
74929
75005
75055
75047
75064
75065
75055
75057
75008
75011
75001
74922
74776
74638
74553
74533
74518
74526
74551
74529
74597
74661
74675
74655
74619
74594
74581
74593
74615
74534
74455
74348
74367
74390
74395
74421
74481
74522
74563
74596
74629
74584
74552
74547
74576
74617
74644
74558
74404
74363
74358
74363
74391
74434
74497
74565
74630
74702
74800
74884
74943
74933
74940
74946
74893
74813
74729
74617
74490
74279
74123
74183
74187
74210
74305
74400
74550
74747
74886
74928
74907
74802
74724
74610
74540
74512
74382
74251
74198
74126
74038
74050
74131
74203
74253
74282
74306
74305
74249
74142
73917
73692
73562
73505
73488
73423
73410
73453
73470
73424
73454
73523
73585
73708
73789
73905
74006
74020
73908
73850
73792
73801
73806
73796
73827
73876
73965
74011
73981
74031
74178
74325
74403
74434
74507
74611
74626
74537
74444
74411
74429
74463
74531
74441
74361
74306
74146
74140
74142
74147
74211
74329
74353
74245
74272
74301
74644
75423
76195
76625
78115
78348
78261
76988
76846
75756
74678
75029
74749
74836
75337
75600
75737
75880
75988
76030
75897
75731
75852
75966
76049
76122
76135
76091
76063
75984
75902
75829
75888
75948
76001
75919
75863
75834
75920
76032
76111
76226
76341
76435
76449
76421
76350
76275
76273
76302
76302
76225
76196
76187
76148
76103
76085
76106
76109
76126
76168
76179
76167
76172
76181
76127
76097
76098
76158
76152
76120
76060
76079
75999
76035
76091
76134
76180
76154
76113
76156
76180
76181
76117
76028
75989
75888
75774
75650
75572
75524
75500
75473
75477
75471
75481
75498
75564
75707
75777
76666
79103
78157
77773
74232
77290
78298
78197
78170
77880
77502
77147
76940
76765
76622
76475
76419
76335
76343
76472
76501
76405
75547
74365
72935
74774
74262
73398
73906
74542
75341
75770
75952
75903
75480
75298
75741
76364
76821
77035
77224
76587
76102
75865
75782
75746
75751
75794
75731
75672
75588
75596
75539
75419
75306
75104
74946
75018
75161
75273
75433
75473
75462
75541
75611
75549
75357
74929
74251
73825
73603
73430
73288
73040
72990
72833
73188
73513
73785
74041
74386
74860
75428
75452
75666
76158
77078
77001
76993
76985
76856
76531
76301
76192
76140
76129
76108
76069
76015
75976
75967
75963
75938
75871
75680
75504
75335
75214
74952
74884
75014
75127
75152
75208
75251
75281
75236
75236
75312
75365
75416
75546
75660
75786
75933
76072
76233
76337
76470
76577
76753
76954
77110
77238
77332
77404
77529
77722
77863
77927
77958
78008
78085
78114
78185
78179
78181
78174
78142
78187
78163
78155
78086
78014
77938
77950
77949
77956
77963
77957
78000
78051
78037
78047
78015
78024
78036
78017
78004
78077
78055
78028
78021
78040
77998
77830
77469
76822
76011
75573
74985
74134
74599
75201
75348
75245
75184
75134
75133
75241
75266
75342
75455
75579
75697
75771
75850
75952
76004
76104
76197
76299
76370
76389
76451
76491
76495
76561
76542
76503
76526
76594
76669
76744
76799
76823
76863
76883
76932
76942
76962
76993
77018
77045
77081
77117
77121
77066
77070
77075
77128
77159
77193
77215
77232
77236
77241
77225
77229
77239
77272
77259
77261
77240
77268
77273
77210
77170
77103
77108
77121
77134
77156
77184
77204
77228
77258
77278
77272
77269
77305
77288
77327
77317
77315
77301
77252
77183
77155
77142
77156
77176
77176
77220
77230
77257
77270
77268
77273
77289
77289
77307
77314
77324
77321
77269
77184
77119
77084
77065
77056
77066
77087
77105
77115
77079
77060
77061
77068
77065
77061
77064
77067
77035
76983
76890
76825
76802
76801
76826
76859
76880
76915
76924
76960
76959
76979
76995
77003
77017
77029
77061
77077
77050
77015
76949
76915
76914
76911
76928
76945
76956
77005
77000
77033
77029
77039
77036
77043
77062
77072
77058
77082
77082
77024
76969
76921
76913
76921
76927
76949
76971
76993
77057
77053
77093
77091
77120
77132
77196
77238
77228
77243
77254
77220
77141
77103
77149
77181
77205
77226
77261
77252
77258
77256
77266
77263
77228
77235
77237
77238
77267
77276
77296
77253
77212
77174
77122
77132
77141
77154
77163
77191
77236
77254
77284
77295
77278
77305
77270
77278
77278
77308
77300
77303
77266
77196
77139
77107
77099
77080
77103
77100
77156
77143
77142
77181
77166
77177
77162
77153
77137
77155
77152
77152
77141
77089
77031
76978
76969
76913
76916
76925
76936
76936
76955
76972
76952
76954
76946
76941
76932
76964
76967
76981
77015
76962
76860
76779
76760
76762
76768
76783
76785
76814
76863
76877
76883
76890
76879
76887
76906
76906
76941
76948
76960
76978
76963
76870
76805
76780
76773
76770
76812
76836
76888
76931
76942
76946
76964
76956
76988
76982
77002
76995
77018
77064
77101
77128
77140
77144
77115
77097
77073
77056
77078
77077
77115
77143
77177
77166
77166
77165
77154
77157
77162
77167
77155
77136
77134
77094
77019
76956
76906
76901
76932
76937
76983
76992
77045
77060
77062
77072
77038
77041
77044
77067
77078
77075
77105
77124
77090
77096
77018
76957
76917
76895
76898
76896
76873
76877
76825
76840
76877
76867
76844
76813
76819
76758
76772
76754
76749
76761
76765
76708
76655
76632
76619
76630
76673
76689
76744
76755
76794
76807
76830
76843
76861
76880
76882
76896
76921
76944
76977
76989
76916
76849
76790
76782
76746
76775
76798
76807
76856
76872
76915
76894
76926
76898
76928
76903
76951
76932
76973
76994
76986
76964
76897
76816
76751
76766
76774
76800
76804
76837
76837
76860
76837
76865
76880
76876
76848
76838
76847
76830
76821
76828
76844
76861
76801
76734
76721
76696
76696
76734
76758
76781
76821
76827
76858
76863
76860
76870
76879
76875
76879
76901
76916
76934
76936
76924
76870
76790
76741
76750
76742
76750
76777
76799
76801
76820
76842
76842
76831
76839
76836
76830
76832
76835
76843
76842
76827
76770
76689
76624
76581
76533
76497
76505
76508
76501
76511
76509
76533
76529
76560
76569
76607
76622
76660
76696
76723
76731
76753
76682
76606
76589
76561
76562
76571
76595
76635
76649
76672
76678
76690
76682
76711
76698
76718
76733
76736
76739
76757
76755
76721
76617
76568
76554
76533
76517
76532
76552
76558
76599
76598
76605
76612
76605
76594
76597
76610
76599
76602
76615
76669
76648
76643
76596
76524
76540
76558
76565
76576
76608
76649
76669
76719
76736
76744
76774
76770
76768
76790
76793
76782
76821
76828
76856
76841
76809
76749
76684
76641
76634
76672
76684
76692
76736
76751
76755
76777
76777
76754
76761
76777
76789
76797
76786
76793
76799
76818
76804
76716
76597
76546
76478
76461
76463
76465
76482
76488
76466
76467
76445
76408
76379
76359
76361
76394
76406
76485
76534
76579
76583
76546
76463
76441
76421
76413
76424
76452
76492
76527
76527
76568
76595
76587
76598
76619
76627
76652
76663
76671
76700
76732
76752
76717
76637
76600
76548
76539
76550
76574
76595
76624
76671
76689
76715
76734
76735
76759
76779
76770
76804
76801
76807
76801
76834
76831
76804
76730
76667
76640
76646
76665
76686
76694
76708
76732
76755
76794
76777
76786
76790
76827
76818
76829
76832
76838
76848
76905
76918
76883
76815
76757
76682
76678
76687
76681
76718
76749
76758
76800
76811
76823
76808
76791
76822
76829
76822
76856
76846
76865
76887
76912
76913
76878
76803
76739
76718
76726
76733
76718
76751
76782
76805
76803
76802
76837
76847
76841
76850
76847
76856
76875
76867
76888
76924
76959
76912
76761
76648
76600
76571
76571
76571
76586
76622
76652
76654
76681
76704
76703
76726
76758
76756
76785
76771
76833
76837
76840
76841
76775
76710
76661
76620
76632
76648
76675
76706
76724
76750
76790
76796
76777
76789
76813
76808
76825
76835
76834
76868
76911
76937
76914
76848
76763
76723
76725
76726
76757
76783
76829
76875
76884
76927
76933
76919
76934
76950
76956
76961
76981
76981
76974
76980
77005
76992
76930
76869
76795
76783
76779
76773
76754
76749
76787
76796
76816
76815
76827
76815
76835
76815
76827
76820
76840
76838
76848
76871
76871
76862
76809
76732
76666
76635
76633
76652
76679
76702
76732
76738
76764
76770
76788
76768
76765
76770
76778
76800
76809
76816
76827
76842
76819
76804
76688
76595
76544
76512
76510
76486
76492
76498
76481
76514
76509
76498
76518
76507
76518
76521
76542
76566
76579
76599
76633
76634
76623
76513
76438
76394
76391
76401
76428
76439
76478
76498
76521
76542
76538
76554
76564
76560
76586
76587
76605
76618
76632
76682
76721
76699
76628
76533
76498
76464
76483
76499
76509
76569
76590
76640
76682
76708
76708
76704
76711
76727
76747
76750
76752
76794
76789
76810
76811
76791
76707
76623
76557
76563
76552
76555
76578
76615
76637
76641
76660
76689
76696
76698
76719
76700
76699
76719
76725
76728
76752
76767
76794
76772
76684
76617
76579
76543
76557
76587
76594
76610
76640
76660
76680
76681
76702
76701
76677
76693
76710
76714
76714
76716
76734
76745
76753
76738
76667
76574
76532
76496
76423
76404
76416
76417
76441
76450
76453
76453
76441
76437
76459
76463
76478
76473
76466
76487
76492
76496
76475
76395
76332
76299
76277
76301
76286
76323
76340
76382
76386
76426
76428
76438
76436
76476
76472
76478
76495
76534
76548
76548
76593
76617
76557
76460
76393
76381
76400
76401
76436
76504
76546
76586
76600
76626
76639
76645
76645
76649
76661
76675
76679
76677
76688
76702
76699
76686
76640
76544
76475
76448
76479
76493
76505
76511
76532
76534
76553
76563
76554
76558
76568
76601
76592
76603
76613
76639
76634
76643
76636
76623
76622
76557
76471
76428
76427
76396
76409
76433
76456
76483
76499
76531
76525
76537
76502
76542
76547
76540
76554
76563
76594
76594
76609
76606
76653
76606
76532
76435
76391
76376
76378
76389
76419
76444
76453
76463
76493
76513
76510
76516
76525
76553
76561
76585
76587
76595
76575
76588
76576
76520
76380
76269
76232
76224
76226
76244
76252
76285
76293
76327
76375
76390
76394
76373
76391
76387
76396
76429
76435
76461
76481
76465
76477
76430
76322
76261
76251
76251
76279
76280
76318
76318
76382
76375
76403
76386
76419
76415
76420
76417
76454
76443
76464
76473
76489
76510
76546
76508
76419
76340
76311
76293
76305
76266
76272
76284
76276
76274
76287
76291
76282
76282
76300
76293
76271
76281
76266
76271
76286
76311
76334
76359
76359
76317
76257
76257
76285
76313
76389
76486
76549
76550
76564
76597
76598
76611
76581
76619
76621
76623
76648
76650
76649
76659
76668
76635
76646
76650
76591
76475
76316
76215
76178
76167
76156
76182
76173
76169
76165
76073
75969
75297
73958
73528
73181
72187
71751
71663
71323
71799
72465
72992
73605
74398
75224
75743
76094
76285
76366
76434
76484
76489
76546
76584
76631
76682
76701
76711
76737
76750
76750
76762
76823
76902
76889
76862
77012
77167
77217
77228
77382
77609
77980
78144
77924
77813
77803
77800
77751
77705
77699
77704
77682
77694
77736
77771
77802
77791
77813
77820
77781
77752
77701
77590
77531
77517
77499
77486
77468
77491
77512
77556
77605
77625
77603
77596
77610
77650
77657
77655
77639
77652
77674
77690
77651
77566
77493
77468
77430
77391
77400
77384
77364
77352
77360
77365
77404
77411
77416
77420
77385
77357
77357
77333
77353
77372
77339
77338
77254
77189
77177
77176
77223
77274
77283
77312
77321
77328
77352
77325
77307
77310
77310
77310
77309
77277
77260
77281
77271
77303
77296
77296
77243
77168
77112
77099
77098
77147
77172
77189
77220
77235
77216
77238
77232
77253
77279
77325
77328
77362
77366
77361
77380
77414
77437
77445
77421
77379
77328
77300
77300
77291
77311
77342
77359
77371
77376
77417
77398
77413
77414
77418
77426
77425
77414
77457
77462
77466
77461
77477
77490
77429
77387
77369
77347
77362
77356
77380
77391
77419
77428
77422
77443
77439
77426
77430
77451
77458
77476
77460
77454
77470
77486
77487
77490
77426
77382
77361
77375
77373
77354
77386
77417
77415
77428
77458
77462
77472
77458
77453
77468
77480
77478
77495
77491
77515
77511
77526
77532
77504
77446
77415
77402
77398
77394
77404
77425
77453
77468
77468
77468
77470
77487
77484
77477
77481
77477
77499
77525
77548
77561
77590
77588
77598
77612
77601
77538
77503
77484
77487
77511
77537
77548
77564
77579
77605
77614
77643
77652
77646
77653
77656
77667
77650
77653
77621
77647
77627
77640
77633
77669
77667
77697
77675
77619
77584
77572
77566
77604
77616
77609
77628
77655
77674
77703
77670
77697
77709
77692
77698
77705
77710
77737
77747
77734
77740
77759
77747
77747
77775
77747
77697
77667
77645
77634
77646
77656
77662
77676
77688
77697
77711
77740
77701
77708
77711
77720
77705
77747
77736
77737
77756
77747
77736
77745
77741
77691
77657
77636
77645
77631
77635
77642
77655
77673
77681
77697
77704
77698
77685
77700
77679
77699
77698
77719
77715
77728
77725
77722
77745
77705
77652
77605
77589
77597
77594
77606
77607
77588
77618
77612
77616
77635
77625
77598
77617
77612
77626
77634
77647
77653
77655
77664
77672
77686
77654
77610
77589
77542
77539
77552
77568
77557
77569
77574
77595
77600
77588
77583
77586
77591
77578
77599
77589
77607
77616
77617
77610
77609
77627
77640
77647
77618
77583
77534
77517
77524
77521
77511
77514
77507
77543
77521
77561
77550
77554
77541
77529
77536
77528
77532
77534
77546
77565
77543
77557
77542
77562
77568
77555
77545
77520
77464
77435
77422
77408
77428
77415
77429
77446
77441
77481
77448
77469
77441
77446
77452
77458
77461
77463
77456
77460
77455
77474
77469
77495
77500
77490
77476
77413
77385
77373
77375
77371
77385
77402
77419
77441
77445
77461
77455
77457
77468
77478
77483
77479
77490
77484
77496
77496
77515
77523
77543
77513
77490
77435
77397
77404
77418
77436
77432
77437
77438
77446
77465
77472
77483
77479
77490
77472
77493
77492
77490
77501
77508
77515
77514
77503
77521
77493
77457
77404
77368
77399
77399
77382
77416
77420
77438
77455
77435
77446
77460
77455
77447
77462
77441
77464
77472
77474
77473
77484
77487
77480
77497
77496
77476
77412
77378
77353
77372
77367
77391
77412
77398
77407
77400
77420
77421
77431
77400
77421
77415
77438
77439
77429
77421
77443
77444
77454
77452
77460
77463
77471
77492
77467
77405
77377
77367
77350
77365
77365
77385
77407
77393
77424
77426
77425
77429
77433
77423
77430
77438
77444
77449
77454
77460
77480
77483
77484
77498
77477
77498
77503
77446
77412
77364
77370
77373
77375
77377
77402
77411
77418
77433
77437
77442
77430
77435
77443
77459
77448
77456
77475
77457
77477
77506
77504
77506
77498
77478
77444
77390
77374
77341
77364
77377
77386
77397
77405
77404
77423
77436
77430
77421
77420
77427
77442
77446
77454
77439
77442
77452
77455
77440
77478
77473
77457
77384
77347
77332
77333
77325
77327
77323
77342
77347
77367
77377
77378
77402
77369
77376
77385
77380
77399
77396
77412
77417
77408
77424
77433
77447
77433
77441
77458
77465
77476
77461
77435
77381
77328
77342
77325
77311
77300
77305
77312
77315
77346
77343
77350
77336
77342
77352
77349
77338
77349
77381
77387
77373
77396
77387
77394
77411
77416
77423
77414
77436
77424
77437
77457
77427
77475
77465
77468
77478
77486
77487
77472
77474
77420
77372
77375
77359
77374
77380
77385
77412
77395
77448
77443
77442
77426
77428
77451
77443
77465
77439
77465
77480
77474
77496
77498
77503
77510
77510
77529
77531
77557
77549
77562
77571
77543
77506
77460
77443
77462
77469
77468
77491
77515
77517
77520
77544
77535
77544
77517
77538
77555
77546
77572
77569
77573
77574
77586
77589
77599
77582
77611
77607
77569
77509
77484
77467
77466
77455
77464
77482
77490
77492
77514
77517
77507
77523
77538
77527
77539
77541
77546
77545
77566
77563
77547
77581
77601
77588
77582
77592
77565
77528
77470
77464
77440
77448
77446
77449
77465
77466
77487
77471
77482
77490
77488
77481
77486
77486
77465
77465
77468
77481
77457
77473
77456
77461
77444
77463
77454
77449
77430
77385
77337
77318
77285
77287
77292
77291
77312
77319
77322
77354
77359
77346
77368
77359
77345
77368
77368
77389
77398
77388
77388
77414
77402
77420
77426
77429
77433
77432
77394
77363
77291
77290
77301
77297
77298
77319
77343
77362
77364
77378
77375
77377
77391
77390
77390
77398
77392
77401
77403
77432
77416
77421
77418
77420
77452
77442
77405
77350
77324
77322
77311
77340
77336
77351
77372
77394
77394
77405
77410
77412
77407
77413
77410
77418
77436
77444
77435
77453
77462
77464
77468
77467
77482
77449
77413
77390
77360
77363
77357
77376
77369
77392
77405
77426
77449
77447
77445
77447
77470
77454
77458
77462
77479
77477
77489
77499
77500
77522
77500
77511
77508
77520
77499
77431
77361
77364
77375
77354
77358
77392
77369
77372
77399
77390
77387
77385
77355
77370
77349
77360
77368
77363
77371
77369
77389
77383
77393
77393
77384
77404
77398
77400
77392
77386
77409
77385
77343
77334
77356
77368
77376
77402
77393
77396
77380
77407
77389
77371
77339
77355
77333
77328
77305
77302
77294
77297
77268
77267
77246
77237
77225
77198
77225
77244
77262
77284
77283
77241
77184
77163
77157
77153
77157
77177
77187
77195
77211
77216
77243
77253
77240
77242
77235
77237
77253
77261
77250
77274
77295
77277
77300
77307
77285
77308
77332
77291
77248
77202
77195
77212
77216
77229
77250
77259
77270
77271
77323
77329
77320
77326
77338
77346
77361
77354
77367
77375
77378
77388
77387
77406
77411
77419
77414
77424
77392
77353
77313
77342
77333
77334
77331
77363
77372
77394
77395
77411
77409
77410
77426
77431
77439
77457
77459
77472
77488
77501
77508
77517
77522
77540
77550
77573
77581
77559
77559
77487
77459
77445
77467
77468
77458
77480
77491
77498
77504
77525
77522
77525
77530
77522
77536
77535
77538
77548
77568
77582
77595
77589
77600
77611
77620
77638
77640
77652
77670
77643
77611
77579
77575
77542
77571
77568
77586
77605
77592
77620
77627
77652
77634
77639
77624
77636
77639
77633
77637
77639
77641
77634
77648
77651
77657
77645
77684
77675
77669
77631
77589
77544
77567
77581
77591
77612
77633
77651
77680
77679
77682
77664
77665
77663
77671
77657
77652
77656
77665
77651
77666
77642
77630
77660
77659
77655
77599
77565
77540
77501
77508
77519
77508
77531
77541
77539
77613
77636
77584
77602
77657
77674
77634
77537
77356
77182
76918
75484
73671
72400
71744
71346
71011
70772
70527
70301
70116
70004
69950
69909
69870
69849
69868
69869
69889
69911
69930
69929
69975
70021
70072
70166
70242
70300
70322
70364
70373
70403
70451
70470
70468
70523
70552
70575
70548
70511
70427
70428
70431
70445
70476
70492
70528
70547
70581
70615
70653
70647
70654
70650
70643
70668
70679
70699
70736
70753
70765
70765
70783
70780
70786
70814
70788
70779
70707
70648
70613
70613
70607
70637
70647
70677
70696
70724
70759
70753
70769
70779
70792
70785
70826
70823
70868
70878
70912
70910
70913
70932
70948
70989
70988
70941
70874
70824
70790
70791
70800
70823
70837
70876
70897
70945
70954
70967
70978
70974
70986
71000
71048
71122
71159
71213
71237
71278
71314
71333
71372
71382
71393
71361
71285
71249
71222
71233
71255
71288
71329
71393
71424
71466
71515
71532
71576
71592
71630
71653
71695
71718
71758
71798
71849
71898
71969
71990
72021
72067
72081
72106
72114
72056
72016
72031
72078
72148
72217
72244
72339
72396
72426
72496
72556
72609
72633
72656
72708
72740
72788
72822
72874
72903
72941
72996
72969
72950
72974
72996
72997
73024
73035
73027
73035
72968
72913
72909
72917
72926
72949
72985
73022
73039
73045
73050
73073
73094
73094
73101
73093
73135
73142
73151
73186
73172
73175
73179
73182
73191
73181
73209
73207
73168
73167
73098
73053
73022
73000
73018
73009
73042
73072
73090
73097
73120
73124
73147
73156
73147
73143
73162
73176
73203
73210
73208
73227
73225
73243
73250
73274
73257
73224
73136
73090
73057
73074
73078
73112
73120
73158
73162
73155
73184
73195
73202
73178
73183
73176
73195
73213
73216
73237
73245
73254
73265
73293
73296
73295
73288
73256
73195
73147
73115
73108
73123
73148
73176
73199
73249
73243
73265
73279
73293
73302
73288
73310
73308
73306
73303
73305
73323
73313
73357
73344
73366
73374
73395
73382
73397
73338
73258
73240
73245
73272
73299
73321
73345
73374
73386
73401
73418
73428
73439
73449
73475
73470
73491
73487
73497
73509
73543
73538
73571
73572
73561
73573
73593
73610
73576
73526
73478
73446
73415
73417
73436
73456
73458
73475
73492
73498
73495
73531
73516
73513
73504
73493
73497
73509
73489
73490
73482
73449
73455
73431
73454
73439
73446
73417
73359
73295
73240
73236
73229
73244
73283
73310
73344
73348
73345
73374
73406
73398
73365
73405
73398
73410
73437
73436
73456
73467
73473
73508
73515
73529
73526
73489
73410
73346
73343
73320
73327
73355
73391
73408
73426
73443
73462
73481
73476
73508
73501
73513
73506
73529
73565
73572
73574
73601
73611
73627
73641
73627
73660
73618
73543
73483
73459
73451
73497
73484
73542
73579
73592
73599
73640
73646
73651
73651
73638
73629
73636
73640
73665
73670
73683
73694
73726
73732
73755
73781
73798
73795
73749
73686
73657
73663
73662
73674
73673
73649
73705
73718
73720
73745
73741
73730
73722
73736
73746
73747
73753
73756
73746
73772
73767
73781
73797
73786
73812
73785
73753
73705
73624
73564
73543
73534
73510
73495
73514
73517
73499
73493
73498
73492
73476
73466
73455
73477
73482
73468
73482
73477
73476
73476
73478
73501
73522
73502
73485
73402
73344
73339
73341
73348
73357
73390
73386
73414
73409
73417
73407
73427
73424
73405
73439
73446
73487
73484
73465
73508
73485
73515
73518
73544
73524
73504
73429
73337
73322
73302
73312
73340
73378
73379
73409
73423
73446
73472
73484
73472
73491
73486
73478
73507
73513
73514
73527
73528
73553
73580
73590
73603
73634
73646
73661
73584
73510
73479
73499
73493
73523
73540
73576
73602
73598
73629
73624
73631
73619
73626
73631
73634
73622
73650
73644
73655
73654
73638
73642
73650
73652
73643
73635
73661
73636
73575
73501
73459
73483
73499
73497
73525
73535
73569
73579
73585
73583
73566
73564
73570
73545
73538
73521
73515
73525
73511
73508
73497
73480
73490
73508
73526
73528
73473
73423
73344
73319
73296
73308
73310
73335
73362
73373
73377
73366
73385
73400
73396
73387
73377
73386
73398
73404
73429
73425
73442
73452
73467
73481
73494
73492
73495
73450
73373
73331
73318
73315
73344
73346
73367
73395
73400
73412
73436
73463
73463
73456
73482
73469
73509
73505
73518
73536
73536
73540
73552
73559
73592
73597
73577
73567
73514
73428
73377
73396
73387
73409
73425
73429
73476
73499
73510
73540
73547
73560
73574
73573
73587
73578
73630
73620
73627
73669
73676
73688
73685
73690
73705
73701
73726
73689
73660
73572
73559
73563
73534
73568
73579
73599
73603
73620
73621
73636
73653
73647
73649
73657
73663
73657
73671
73671
73690
73696
73707
73692
73716
73718
73714
73723
73691
73649
73581
73508
73469
73443
73434
73429
73433
73482
73488
73484
73510
73517
73530
73526
73506
73475
73478
73492
73475
73487
73503
73503
73528
73539
73541
73567
73556
73540
73476
73402
73392
73391
73392
73420
73418
73438
73474
73461
73482
73513
73511
73511
73535
73528
73542
73533
73555
73578
73575
73582
73585
73613
73633
73635
73623
73591
73530
73471
73453
73464
73473
73497
73526
73547
73564
73581
73622
73617
73622
73647
73626
73655
73638
73652
73666
73667
73673
73693
73710
73730
73745
73759
73762
73768
73743
73681
73611
73597
73608
73619
73649
73690
73715
73722
73743
73763
73774
73776
73791
73771
73789
73811
73795
73831
73856
73861
73876
73911
73904
73929
73935
73957
73965
73930
73873
73804
73765
73757
73767
73803
73824
73866
73870
73889
73919
73921
73931
73922
73930
73925
73913
73923
73913
73936
73938
73938
73974
73960
73955
73968
73975
73972
73946
73896
73814
73757
73753
73739
73733
73735
73766
73773
73784
73798
73796
73819
73804
73802
73793
73792
73793
73802
73805
73792
73822
73797
73785
73780
73804
73772
73713
73639
73600
73569
73560
73563
73575
73595
73621
73613
73639
73647
73656
73658
73683
73667
73665
73667
73662
73688
73664
73680
73700
73706
73721
73714
73705
73656
73556
73524
73501
73531
73532
73528
73559
73575
73587
73607
73617
73617
73614
73611
73603
73618
73637
73651
73644
73671
73655
73663
73672
73692
73708
73709
73708
73660
73601
73564
73525
73505
73526
73545
73563
73576
73612
73631
73652
73664
73639
73617
73635
73607
73638
73669
73661
73682
73687
73698
73691
73728
73740
73757
73771
73779
73773
73723
73630
73592
73597
73615
73640
73657
73651
73677
73702
73716
73724
73750
73724
73735
73714
73743
73755
73757
73757
73762
73798
73808
73803
73824
73819
73813
73850
73830
73804
73735
73665
73651
73637
73653
73651
73665
73683
73702
73719
73725
73731
73729
73728
73721
73704
73722
73731
73736
73753
73742
73747
73767
73772
73774
73801
73796
73741
73680
73599
73577
73559
73557
73571
73598
73627
73630
73654
73661
73656
73665
73636
73658
73654
73669
73663
73689
73679
73686
73691
73705
73702
73714
73713
73681
73598
73537
73509
73513
73536
73542
73555
73589
73586
73597
73624
73638
73659
73656
73646
73652
73654
73650
73659
73673
73689
73684
73705
73702
73711
73703
73673
73608
73522
73528
73508
73534
73557
73576
73600
73605
73618
73645
73646
73659
73679
73660
73654
73670
73685
73688
73681
73683
73683
73679
73700
73709
73721
73714
73690
73610
73560
73531
73521
73539
73563
73573
73600
73641
73661
73670
73694
73702
73707
73710
73714
73733
73735
73780
73779
73797
73806
73829
73834
73863
73851
73868
73856
73828
73748
73687
73672
73696
73694
73704
73704
73741
73747
73778
73779
73790
73793
73790
73793
73786
73801
73810
73818
73843
73822
73847
73841
73855
73865
73885
73855
73809
73714
73664
73638
73647
73639
73654
73662
73693
73711
73720
73736
73726
73716
73704
73689
73710
73715
73715
73709
73736
73720
73732
73740
73732
73754
73747
73695
73609
73556
73540
73540
73531
73557
73566
73564
73605
73624
73639
73653
73658
73639
73649
73648
73657
73660
73693
73669
73681
73705
73700
73730
73709
73708
73674
73563
73517
73523
73522
73528
73523
73559
73592
73603
73609
73638
73637
73629
73660
73641
73636
73657
73655
73682
73695
73702
73711
73742
73737
73763
73790
73789
73789
73732
73644
73591
73580
73595
73611
73623
73637
73652
73654
73670
73691
73689
73671
73702
73688
73693
73697
73729
73764
73749
73772
73792
73809
73826
73845
73832
73855
73874
73890
73907
73868
73804
73739
73698
73695
73717
73740
73752
73765
73780
73795
73792
73798
73796
73779
73788
73790
73781
73794
73796
73816
73811
73835
73815
73814
73833
73842
73847
73824
73832
73803
73746
73682
73622
73624
73591
73610
73612
73646
73642
73654
73676
73669
73659
73647
73633
73622
73613
73632
73626
73640
73639
73654
73662
73677
73668
73684
73678
73665
73587
73526
73501
73504
73510
73543
73554
73573
73593
73591
73603
73615
73644
73629
73636
73629
73634
73626
73662
73680
73685
73692
73677
73688
73724
73717
73731
73660
73559
73551
73538
73569
73568
73594
73596
73604
73648
73663
73685
73675
73685
73686
73678
73679
73686
73714
73718
73736
73734
73752
73762
73769
73785
73800
73812
73812
73734
73678
73663
73677
73689
73698
73724
73744
73739
73767
73773
73794
73802
73796
73787
73784
73810
73821
73842
73833
73827
73853
73830
73841
73859
73873
73891
73902
73868
73822
73735
73719
73708
73721
73722
73746
73762
73759
73769
73804
73808
73820
73797
73790
73789
73799
73812
73832
73843
73844
73852
73840
73853
73859
73877
73876
73852
73787
73718
73669
73651
73646
73646
73631
73676
73683
73686
73681
73697
73701
73691
73671
73672
73669
73665
73662
73685
73695
73692
73694
73686
73708
73715
73703
73669
73574
73536
73528
73520
73532
73530
73542
73571
73576
73590
73612
73620
73612
73632
73628
73633
73648
73649
73641
73675
73686
73713
73713
73733
73750
73751
73695
73604
73567
73552
73564
73563
73573
73609
73614
73627
73653
73658
73670
73670
73682
73663
73702
73729
73743
73761
73794
73802
73838
73862
73857
73883
73884
73893
73848
73766
73752
73720
73737
73740
73752
73754
73791
73795
73794
73811
73812
73795
73794
73802
73812
73819
73824
73831
73837
73867
73860
73874
73881
73883
73880
73876
73818
73742
73702
73681
73682
73693
73724
73737
73741
73735
73761
73766
73759
73753
73728
73723
73716
73718
73724
73707
73726
73732
73738
73725
73740
73733
73716
73650
73580
73546
73537
73546
73569
73573
73583
73603
73622
73633
73652
73630
73660
73619
73629
73630
73641
73646
73634
73649
73653
73647
73672
73672
73693
73646
73576
73523
73537
73542
73592
73656
73698
73726
73739
73773
73761
73774
73798
73817
73842
73888
73960
74052
74065
74048
73887
73699
73643
73943
74356
73556
72470
72155
72001
71860
71749
71708
71652
71602
71520
71434
71352
71283
71154
71058
70974
70856
70751
70711
70682
70724
70778
70801
70772
70827
70843
70890
70921
70931
70819
70800
70785
70731
70723
70719
70697
70694
70710
70730
70719
70690
70669
70648
70636
70599
70562
70473
70423
70387
70353
70320
70295
70273
70252
70202
70114
70035
69979
69947
69907
69807
69741
69659
69602
69527
69424
69421
69394
69348
69288
69132
68914
69031
68843
69069
70112
75396
75884
75376
74069
73533
73701
73483
72371
72275
71123
67610
67459
68160
68643
68319
69129
69223
69100
68557
69312
69603
69634
69665
69696
69746
69790
69817
69785
69641
69483
69377
69489
69542
69584
69638
69748
69839
69933
69993
70055
70123
70170
70231
70299
70385
70478
70489
70504
70377
70180
69438
70386
69770
70743
70661
70670
70739
70856
70953
71043
71082
71204
71325
71448
71605
72005
72316
72508
72562
72559
72477
72481
72414
72445
72571
72610
72579
72568
72517
72450
72430
72498
72588
72353
72350
72648
72807
72883
72764
73121
74255
75387
76308
77292
77534
74374
73016
77719
75786
76386
76187
77182
76794
76512
76282
76123
76037
76004
75977
75932
75925
75911
75904
75732
75443
75231
75062
74973
74958
75032
75158
75203
75188
75058
74865
74735
74531
74378
74205
74100
74106
74083
74097
74137
74121
74192
74306
38487
74382
74384
74403
74439
74468
74536
74534
74540
74476
74449
74373
74347
74377
74445
74573
74730
74917
75072
75172
75239
75303
75312
75338
75329
75394
75458
75558
75642
75683
75748
75814
75900
75985
76037
76142
76170
76240
76299
76373
76473
76618
76705
76697
76744
76751
76715
76722
76687
76574
76417
76255
76067
75683
75448
75305
75148
75112
75296
75589
75811
75996
76093
76152
76136
76178
76115
76022
76015
76039
76009
76042
76032
75938
75789
75656
75568
75504
75469
75504
75611
75663
75681
75734
75837
75966
76055
76061
76032
76004
75963
75996
75989
76014
76113
76210
76312
76401
76423
76449
76512
76524
76537
76565
76586
76621
76661
76702
76724
76758
76786
76808
76852
76825
76854
76911
76918
77048
77115
77142
77138
77125
77067
77084
77094
77113
77143
77199
77250
77278
77305
77319
77321
77321
77303
77334
77328
77324
77326
77349
77362
77376
77338
77296
77257
77241
77289
77319
77387
77407
77389
77424
77449
77476
77461
77459
77466
77475
77458
77449
77435
77473
77452
77450
77375
77294
77268
77216
77193
77255
77214
77187
77078
76961
76887
76829
76746
76605
76513
76439
76285
76034
75733
75421
75157
74925
74787
74691
74682
74637
74618
74688
74734
74688
74693
74770
74814
74869
74953
75033
75079
75126
75148
75191
75256
75352
75379
75403
75407
75486
75555
75622
75722
75828
75944
76057
76173
76238
76280
76327
76345
76335
76299
76258
76283
76326
76369
76365
76343
76256
76248
76263
76309
76333
76358
76340
76384
76416
76443
76401
76381
76357
76333
76289
76220
76136
76089
76080
76043
75929
75789
75709
75682
75714
75740
75778
75825
75876
75954
34382
29838
29843
29922
29894
29871
29866
29860
29865
29856
76043
76019
75926
75868
75882
75891
75904
75956
76004
76054
76091
76140
76160
76161
76179
76204
76200
76195
76185
76188
76210
76228
76249
76172
76092
76020
76014
76042
76069
76128
76177
76186
76234
76288
76301
76301
76291
76298
76285
76327
76360
76400
76477
76511
76491
76432
76430
76462
76519
76584
76638
76735
76811
76896
76950
77011
77053
77085
77122
77153
77166
77185
77201
77219
77238
77216
77171
77084
77077
77055
77055
77087
77129
77174
77206
77231
77250
77255
77252
77225
77197
77169
77108
77083
77099
77130
77102
76992
76856
76751
76658
76600
76534
76514
76454
76391
76384
76293
76184
76108
76060
76005