-3184,-30546,15
-1473,-30465,11
-1281,-30465,9
-2625,-30465,10
-1977,-22862,-6
5,-11,-13
3,-13,-13
4,-11,-8
4,-9,-10
2,-8,-8
2,-3,-7
1,0,-4
3,2,-3
6,7,-1
7,9,0
10,13,1
13,14,2
18,18,0
24,19,-2
27,17,2
21,16,0
18,10,3
16,6,4
15,2,2
14,1,9
12,1,8
13,3,6
23,2,3
29,-1,2
28,-6,3
27,-13,3
23,-17,4
18,-26,8
13,-32,10
9,-35,12
10,-38,7
12,-39,7
14,-41,2
15,-45,2
14,-44,-2
13,-42,-2
14,-37,-2
10,-35,-1
2,-32,0
-3,-26,2
-9,-18,2
-13,-16,0
-20,-7,0
-21,-2,0
-21,5,0
-20,11,0
-25,18,-2
-26,23,-6
-30,22,-8
-34,26,-11
-37,28,-13
-37,22,-15
-40,21,-15
-41,18,-15
-40,19,-17
-37,20,-21
-31,21,-21
-26,24,-25
-17,24,-24
-16,19,-28
-9,18,-24
-5,14,-27
-4,9,-27
-3,5,-25
-4,-1,-28
-3,-9,-28
-6,-23,-30
-10,-35,-28
-15,-40,-27
-23,-47,-26
-31,-48,-24
-38,-46,-20
-49,-42,-15
-58,-34,-13
-67,-27,-10
-78,-18,-9
-90,-7,-6
-102,-3,-5
-122,-5,-8
-140,-8,-13
-157,-20,-18
-180,-36,-22
-207,-57,-29
-244,-91,-40
-287,-135,-49
-333,-191,-59
-385,-258,-75
-435,-341,-95
-493,-431,-115
-550,-520,-141
-610,-620,-165
-664,-715,-192
-722,-783,-218
-785,-824,-233
-850,-848,-250
-913,-869,-271
-975,-886,-285
-1035,-908,-304
-1093,-932,-323
-1150,-961,-339
-1202,-992,-357
-1256,-1021,-376
-1301,-1055,-396
-1340,-1096,-414
-1368,-1143,-435
-1398,-1196,-452
-1420,-1253,-467
-1443,-1303,-480
-1466,-1349,-487
-1489,-1394,-493
-1513,-1427,-503
-1525,-1441,-510
-1534,-1441,-515
-1550,-1426,-522
-1560,-1408,-520
-1571,-1385,-521
-1582,-1359,-519
-1590,-1330,-522
-1602,-1304,-524
-1606,-1274,-531
-1601,-1244,-543
-1592,-1217,-552
-1581,-1192,-562
-1567,-1179,-578
-1544,-1177,-589
-1507,-1183,-600
-1462,-1198,-611
-1410,-1218,-622
-1353,-1247,-623
-1292,-1266,-620
-1236,-1270,-611
-1192,-1253,-589
-1165,-1211,-556
-1162,-1154,-515
-1165,-1075,-472
-1171,-984,-434
-1179,-885,-394
-1190,-786,-358
-1204,-703,-315
-1216,-630,-278
-1216,-572,-238
-1197,-521,-215
-1152,-489,-190
-1101,-474,-174
-1038,-474,-156
-970,-478,-144
-881,-486,-138
-797,-484,-135
-709,-480,-129
-630,-464,-119
-566,-448,-111
-509,-419,-93
-470,-387,-70
-432,-346,-45
-398,-311,-21
-363,-269,5
-332,-221,27
-296,-186,46
-260,-144,68
-224,-106,80
-189,-73,88
-151,-43,101
-112,-17,108
-79,0,109
-43,10,113
-11,7,111
18,1,111
50,-14,113
72,-23,116
94,-30,125
108,-38,128
119,-37,136
129,-31,143
131,-21,149
134,-7,160
134,6,165
138,23,169
144,37,173
150,57,174
164,72,174
175,85,170
189,93,167
206,101,163
223,106,162
237,107,157
247,102,161
263,92,161
274,86,164
285,82,165
297,76,172
303,76,179
311,72,186
308,77,194
306,81,198
300,84,208
293,92,211
278,98,213
266,107,216
255,114,217
240,124,219
231,130,216
221,140,214
213,142,211
208,145,207
204,143,205
197,145,200
191,147,193
186,144,184
177,140,176
167,135,170
155,123,168
143,119,155
127,116,149
115,108,144
96,104,139
82,102,128
75,94,113
74,86,99
78,79,90
84,73,75
94,67,67
109,59,61
125,51,61
141,45,64
148,39,70
152,34,81
155,35,95
155,37,105
153,39,117
150,49,128
145,56,133
139,64,136
135,74,137
132,83,137
129,88,125
129,98,121
133,103,111
132,105,99
129,106,90
132,106,76
128,104,66
122,97,54
117,90,53
109,78,42
105,66,40
97,54,39
93,42,44
84,34,47
81,25,50
76,22,56
77,18,59
71,17,65
76,17,66
80,18,72
87,21,71
92,26,74
96,28,73
101,30,73
101,33,72
104,36,69
104,36,72
102,40,72
101,41,76
97,39,77
95,40,76
92,35,77
90,32,75
87,27,75
83,26,68
82,22,66
78,19,60
76,21,53
72,21,41
75,21,35
73,20,20
75,16,14
75,17,7
78,15,-3
84,15,-10
86,13,-15
92,11,-14
95,5,-15
102,2,-15
112,-4,-12
115,-7,-6
119,-11,5
119,-11,12
118,-13,19
111,-17,32
105,-15,41
100,-16,51
92,-16,59
89,-18,60
85,-12,61
83,-13,64
82,-10,59
85,-7,53
83,-8,43
82,-2,39
81,0,30
77,1,22
73,3,13
65,1,7
59,-5,1
52,-12,-2
47,-18,-7
38,-20,-8
32,-22,-7
30,-29,-12
30,-33,-15
33,-34,-21
40,-41,-21
45,-43,-21
47,-46,-18
50,-46,-18
53,-49,-11
52,-48,-10
54,-49,-4
51,-48,-2
52,-47,5
50,-50,8
50,-51,14
51,-56,18
51,-65,23
55,-71,26
56,-75,28
58,-82,32
56,-84,34
54,-80,34
52,-80,37
49,-77,36
44,-75,33
40,-67,32
36,-60,28
32,-51,25
32,-45,23
28,-43,22
25,-40,16
26,-36,12
25,-36,8
25,-33,8
23,-35,4
24,-37,1
25,-42,0
26,-47,4
30,-50,4
30,-58,2
33,-65,3
35,-67,5
39,-72,9
43,-77,9
50,-79,12
54,-77,20
62,-81,23
74,-76,28
85,-76,37
94,-74,43
110,-74,52
125,-77,62
140,-78,71
161,-76,82
186,-80,94
209,-83,105
240,-84,123
280,-82,140
323,-87,163
371,-91,186
426,-92,214
486,-85,243
556,-81,284
628,-75,326
703,-66,373
783,-56,424
867,-39,486
959,-21,551
1052,0,624
1142,21,701
1236,39,778
1329,54,860
1420,63,938
1513,61,1017
1602,51,1095
1689,35,1170
1773,8,1246
1863,-30,1315
1946,-72,1395
2032,-119,1473
2107,-157,1553
2174,-199,1637
2229,-233,1723
2266,-257,1808
2285,-274,1898
2280,-287,1986
2260,-303,2073
2219,-317,2156
2174,-328,2235
2125,-344,2307
2074,-359,2371
2028,-373,2425
1983,-388,2476
1944,-400,2514
1918,-419,2544
1906,-448,2561
1903,-483,2567
1907,-523,2565
1906,-567,2559
1895,-613,2551
1872,-660,2544
1837,-699,2542
1797,-730,2539
1746,-753,2530
1687,-763,2519
1619,-768,2506
1549,-763,2483
1470,-745,2457
1384,-720,2430
1301,-695,2393
1220,-667,2353
1145,-637,2307
1068,-608,2254
1000,-587,2189
940,-567,2126
885,-555,2064
831,-544,1994
784,-531,1924
746,-522,1855
715,-515,1781
695,-513,1709
681,-513,1635
670,-519,1560
657,-531,1492
635,-538,1424
613,-549,1361
583,-559,1297
542,-568,1237
503,-579,1178
457,-589,1118
407,-603,1063
353,-615,1001
300,-625,944
247,-633,883
197,-636,820
157,-628,760
131,-615,705
116,-589,643
116,-554,592
121,-523,542
129,-491,494
142,-461,458
151,-438,425
154,-411,396
150,-389,369
143,-370,345
131,-355,327
118,-336,313
104,-319,298
88,-297,282
73,-276,269
57,-253,258
45,-239,250
30,-221,240
14,-201,230
0,-188,222
-4,-178,211
-11,-168,203
-18,-155,197
-23,-143,191
-26,-128,187
-23,-116,181
-25,-101,170
-21,-93,164
-20,-79,158
-17,-68,151
-14,-60,147
-12,-48,138
-12,-39,135
-12,-33,128
-13,-25,125
-15,-22,121
-20,-16,118
-28,-13,114
-33,-12,113
-42,-11,105
-48,-13,106
-54,-12,100
-63,-16,102
-73,-17,104
-79,-18,109
-82,-18,112
-81,-17,115
-76,-14,122
-73,-4,125
-68,-1,129
-57,0,132
-44,0,134
-29,-7,134
-15,-15,139
-7,-20,141
-1,-30,150
-2,-34,152
1,-40,156
-2,-44,160
-7,-45,159
-13,-41,156
-21,-37,156
-26,-34,152
-33,-30,152
-39,-24,148
-42,-19,142
-44,-14,135
-45,-7,125
-47,-1,115
-44,2,108
-39,5,97
-33,5,84
-25,3,76
-14,2,68
-6,-1,58
0,-2,50
7,-3,47
14,-8,40
18,-13,33
23,-14,28
26,-16,23
31,-13,17
36,-4,11
46,-1,6
51,7,1
59,17,-4
63,24,-8
65,32,-13
66,32,-16
66,36,-25
64,37,-33
63,34,-40
57,26,-50
54,24,-64
53,18,-80
52,12,-96
48,11,-115
51,14,-133
53,17,-161
51,23,-187
46,30,-221
38,45,-264
28,51,-307
14,65,-358
-1,79,-417
-14,95,-477
-27,109,-545
-39,126,-612
-46,148,-681
-53,173,-751
-62,199,-815
-69,225,-880
-86,250,-940
-100,267,-997
-120,286,-1054
-141,304,-1109
-168,316,-1164
-199,330,-1216
-228,340,-1269
-258,347,-1321
-278,353,-1372
-298,358,-1426
-308,370,-1477
-315,380,-1521
-313,392,-1563
-309,410,-1600
-302,425,-1631
-292,442,-1658
-273,457,-1680
-256,473,-1695
-244,498,-1707
-232,525,-1717
-222,555,-1721
-214,580,-1723
-211,602,-1715
-210,617,-1699
-206,629,-1677
-210,634,-1654
-210,642,-1629
-211,656,-1610
-210,674,-1588
-206,692,-1565
-201,710,-1536
-190,727,-1514
-176,746,-1485
-166,765,-1457
-156,780,-1424
-149,798,-1392
-146,808,-1359
-141,815,-1327
-139,823,-1294
-138,823,-1261
-134,825,-1228
-127,821,-1197
-127,816,-1165
-121,812,-1132
-114,805,-1103
-104,800,-1079
-94,795,-1054
-83,794,-1034
-72,786,-1019
-57,781,-996
-47,777,-976
-40,786,-956
-35,795,-938
-29,809,-921
-29,814,-903
-31,815,-883
-33,818,-859
-37,813,-832
-40,807,-802
-42,788,-773
-36,771,-742
-29,766,-715
-17,762,-693
0,765,-675
20,775,-655
37,786,-643
58,804,-630
76,820,-620
87,847,-611
93,869,-603
102,890,-586
101,903,-568
99,909,-554
96,918,-532
86,926,-514
86,929,-492
78,933,-476
76,938,-459
70,942,-449
66,950,-430
63,960,-418
64,968,-400
69,983,-384
69,982,-363
76,1008,-340
78,1030,-316
82,1043,-288
92,1041,-261
101,1049,-231
108,1049,-200
110,1059,-167
121,1057,-135
127,1057,-103
138,1052,-71
142,1049,-37
145,1036,-7
146,1031,24
145,1020,54
139,1010,84
133,996,111
130,978,138
126,961,159
124,942,177
121,924,192
120,909,205
119,894,212
126,875,220
131,861,229
140,838,233
149,816,238
162,795,244
173,769,250
184,745,253
195,721,265
207,695,271
215,670,285
220,644,296
221,620,309
220,593,325
219,566,336
214,546,351
217,527,359
215,508,364
215,489,370
209,478,374
203,466,377
193,457,380
182,447,378
167,438,378
155,427,379
139,409,375
125,394,374
115,375,375
99,358,370
87,338,364
82,314,357
75,291,352
70,269,342
67,248,335
65,227,329
67,208,322
68,196,318
68,185,312
63,179,307
58,175,298
50,172,293
42,167,286
28,167,282
16,167,276
1,164,269
-10,166,257
-27,161,248
-36,155,235
-45,148,226
-52,137,211
-50,130,200
-46,119,183
-43,110,166
-41,104,152
-32,96,142
-25,88,129
-19,82,119
-8,71,111
-8,67,108
-3,58,103
-2,48,103
0,40,104
-1,35,97
0,26,93
4,19,94
6,12,92
4,10,88
2,6,84
5,0,77
3,-5,76
2,-9,70
2,-17,66
3,-23,61
5,-26,57
5,-30,53
9,-29,46
10,-28,42
10,-27,40
16,-30,41
16,-30,36
16,-31,33
15,-29,31
17,-31,31
17,-31,29
17,-31,29
15,-34,26
16,-40,29
13,-40,28
9,-39,28
6,-38,25
6,-37,22
-1,-32,26
2,-31,23
3,-27,18
5,-22,18
9,-19,18
8,-18,17
10,-16,18
17,-20,19
16,-22,19
18,-23,15
14,-26,14
16,-26,15
14,-31,12
19,-37,10
22,-46,6
22,-55,2
29,-67,0
32,-72,2
32,-80,2
32,-83,-2
32,-87,2
29,-85,-2
27,-86,-1
27,-85,0
26,-82,5
22,-77,5
23,-71,5
20,-69,8
19,-64,9
17,-57,12
14,-48,15
12,-41,13
10,-40,15
9,-36,17
8,-34,14
9,-30,17
6,-26,11
2,-22,15
-3,-18,13
-2,-16,19
-6,-8,14
-10,2,13
-12,14,5
-15,27,10
-19,41,4
-22,52,0
-24,65,-2
-23,74,-7
-24,85,-9
-13,89,-15
-6,97,-20
1,102,-25
11,104,-33
25,104,-39
38,100,-40
51,94,-52
65,85,-54
77,78,-58
91,67,-61
99,64,-58
102,58,-52
106,54,-49
108,51,-43
113,53,-39
117,58,-37
129,58,-35
140,61,-32
150,68,-35
162,78,-34
172,88,-42
183,95,-46
192,101,-50
202,108,-59
203,119,-66
215,126,-74
219,126,-86
226,129,-89
227,123,-101
230,119,-108
232,113,-118
236,109,-127
242,106,-140
245,101,-148
247,98,-156
250,93,-165
253,98,-174
257,104,-183
266,114,-193
270,128,-207
280,143,-218
292,160,-232
301,180,-246
314,200,-260
317,219,-270
320,231,-280
311,245,-288
293,254,-295
270,258,-301
245,265,-308
221,265,-310
202,257,-317
194,250,-318
191,233,-324
191,208,-322
196,187,-319
205,162,-316
214,140,-311
231,120,-311
254,103,-305
278,86,-305
310,72,-303
347,57,-303
387,51,-304
435,48,-300
488,51,-296
539,56,-286
595,59,-276
654,70,-257
721,86,-242
792,114,-224
870,142,-199
951,171,-167
1036,200,-131
1127,226,-88
1217,250,-38
1311,273,16
1409,292,73
1513,314,135
1624,343,201
1735,375,267
1851,405,337
1968,430,409
2090,453,483
2211,480,554
2323,509,630
2432,540,704
2535,569,774
2620,600,849
2706,621,919
2781,636,992
2856,640,1067
2928,636,1131
3011,630,1190
3095,621,1247
3190,613,1293
3281,614,1339
3377,611,1380
3467,611,1414
3550,610,1450
3625,613,1479
3693,616,1509
3744,627,1534
3796,643,1549
3853,661,1560
3909,687,1556
3960,708,1553
4009,727,1548
4057,730,1544
4094,730,1536
4116,725,1526
4123,720,1517
4117,708,1504
4105,692,1493
4082,672,1483
4050,648,1471
4023,629,1458
3994,612,1443
3963,594,1429
3934,576,1414
3897,557,1398
3853,535,1380
3812,516,1363
3770,501,1341
3732,486,1324
3694,467,1304
3659,451,1280
3633,436,1267
3601,413,1254
3567,383,1253
3526,355,1253
3488,319,1255
3444,280,1263
3401,248,1270
3364,227,1278
3327,210,1282
3297,206,1283
3272,201,1280
3255,196,1286
3238,188,1287
3220,177,1286
3206,161,1292
3186,151,1291
3162,130,1295
3136,115,1295
3116,98,1296
3101,78,1294
3102,60,1294
3121,43,1291
3148,31,1285
3190,26,1277
3247,21,1272
3313,22,1265
3390,23,1264
3472,22,1266
3553,21,1271
3636,19,1284
3704,14,1306
3764,12,1331
3807,9,1357
3835,1,1387
3854,-1,1417
3860,-15,1448
3859,-30,1478
3854,-53,1504
3864,-82,1528
3878,-104,1536
3903,-134,1542
3940,-157,1543
3980,-181,1537
4017,-202,1531
4054,-217,1524
4088,-230,1517
4105,-241,1511
4113,-252,1513
4107,-268,1517
4085,-287,1520
4047,-309,1525
3998,-336,1535
3932,-363,1548
3865,-390,1560
3795,-409,1563
3723,-420,1558
3655,-410,1543
3592,-389,1519
3536,-354,1491
3485,-323,1454
3439,-292,1421
3400,-257,1388
3355,-220,1351
3312,-187,1319
3267,-156,1294
3215,-127,1273
3154,-105,1255
3088,-89,1237
3019,-76,1232
2954,-72,1225
2893,-73,1215
2849,-78,1209
2815,-84,1201
2790,-99,1194
2779,-115,1185
2777,-132,1178
2789,-155,1173
2806,-179,1172
2825,-204,1171
2844,-226,1170
2861,-246,1175
2872,-261,1175
2881,-271,1178
2884,-281,1179
2881,-283,1179
2876,-276,1170
2865,-257,1156
2849,-244,1143
2830,-238,1132
2806,-237,1120
2779,-241,1113
2742,-246,1108
2707,-256,1105
2668,-263,1104
2627,-275,1097
2583,-287,1096
2538,-311,1104
2496,-341,1111
2452,-374,1119
2407,-416,1130
2359,-441,1134
2312,-455,1130
2262,-455,1122
2222,-444,1111
2192,-429,1092
2171,-412,1073
2158,-392,1050
2155,-378,1027
2150,-358,1006
2149,-338,985
2144,-327,968
2138,-316,953
2125,-309,951
2107,-307,944
2094,-317,941
2080,-325,937
2075,-351,934
2078,-379,934
2085,-413,932
2103,-446,931
2119,-477,924
2143,-499,916
2168,-516,911
2190,-524,901
2211,-520,891
2226,-510,881
2239,-500,865
2256,-489,854
2264,-476,842
2268,-463,831
2264,-450,817
2253,-438,810
2235,-423,804
2211,-406,798
2181,-389,789
2147,-369,781
2115,-352,773
2079,-333,761
2040,-313,747
2011,-289,732
1981,-262,716
1958,-237,699
1940,-206,678
1919,-176,661
1904,-149,646
1892,-118,635
1878,-94,621
1865,-69,609
1855,-47,603
1841,-28,593
1829,-14,588
1825,-4,584
1826,0,590
1837,0,589
1855,1,588
1877,-3,589
1904,-5,595
1945,-13,593
1991,-23,598
2045,-34,606
2100,-44,619
2152,-60,640
2191,-74,666
2225,-92,699
2254,-114,741
2276,-135,776
2301,-158,818
2318,-173,860
2335,-190,899
2356,-209,942
2374,-226,983
2394,-247,1015
2417,-266,1047
2442,-283,1079
2462,-297,1105
2484,-308,1126
2502,-308,1146
2518,-301,1157
2527,-282,1169
2531,-259,1174
2537,-237,1172
2550,-224,1170
2564,-216,1165
2572,-219,1159
2576,-221,1155
2571,-223,1149
2559,-223,1144
2543,-225,1136
2525,-225,1122
2499,-224,1110
2478,-228,1098
2451,-228,1078
2425,-231,1063
2395,-231,1042
2367,-229,1025
2342,-230,1004
2318,-229,978
2299,-233,955
2287,-233,928
2277,-235,898
2272,-238,871
2271,-243,846
2268,-242,815
2273,-244,790
2274,-247,765
2283,-244,739
2283,-248,712
2286,-255,691
2288,-257,668
2286,-253,645
2286,-256,627
2282,-252,611
2282,-247,595
2275,-244,584
2267,-237,567
2260,-228,557
2245,-223,549
2227,-214,536
2206,-215,524
2185,-217,515
2158,-220,504
2136,-220,492
2111,-231,481
2086,-235,473
2062,-243,457
2030,-250,447
1999,-251,434
1970,-256,420
1944,-254,402
1919,-243,383
1894,-238,361
1875,-225,344
1847,-208,318
1816,-185,297
1783,-160,270
1757,-140,249
1721,-118,224
1695,-99,195
1670,-78,174
1648,-71,155
1621,-58,133
1607,-45,113
1596,-36,91
1592,-28,70
1601,-16,51
1610,-6,33
1619,11,18
1635,33,2
1647,55,-11
1660,80,-23
1678,108,-28
1689,136,-31
1709,155,-29
1728,173,-29
1748,183,-27
1772,186,-25
1796,177,-20
1817,159,-14
1843,143,-14
1873,126,-17
1904,111,-18
1933,106,-21
1966,109,-26
2004,118,-36
2047,134,-54
2102,146,-66
2165,162,-81
2223,175,-94
2295,186,-103
2369,199,-104
2443,203,-98
2512,197,-85
2566,182,-58
2607,153,-24
2633,113,17
2636,67,66
2615,18,116
2579,-20,170
2519,-58,220
2450,-91,265
2388,-120,302
2325,-143,325
2272,-160,340
2225,-168,346
2186,-167,340
2157,-166,329
2127,-160,312
2101,-151,297
2075,-145,280
2048,-138,258
2011,-132,242
1980,-128,225
1940,-125,208
1899,-129,191
1859,-131,175
1824,-140,158
1786,-147,141
1752,-157,125
1724,-171,109
1699,-186,97
1684,-199,81
1669,-211,69
1663,-215,58
1659,-212,43
1662,-206,34
1669,-193,22
1673,-171,7
1686,-147,2
1685,-122,-12
1689,-94,-12
1687,-63,-9
1684,-29,-6
1680,4,-2
1676,33,10
1663,66,20
1647,97,32
1625,127,51
1595,161,67
1564,191,85
1527,218,99
1493,240,116
1452,260,126
1415,274,137
1381,286,145
1346,289,153
1316,290,165
1289,282,180
1260,267,194
1240,243,211
1228,216,233
1217,186,253
1220,153,276
1227,126,301
1241,98,329
1254,75,361
1276,53,384
1298,35,414
1317,21,444
1335,23,463
1355,36,487
1369,57,502
1376,86,518
1379,110,539
1379,141,554
1373,161,568
1363,178,578
1352,190,588
1339,197,597
1325,206,606
1306,212,611
1282,223,618
1253,233,626
1224,256,637
1187,281,640
1161,305,641
1141,325,643
1127,345,635
1125,356,636
1129,368,622
1141,369,606
1164,372,594
1185,375,587
1201,382,583
1208,385,583
1206,385,589
1188,390,598
1158,394,609
1115,395,622
1059,393,631
1003,393,640
943,387,640
883,379,639
819,369,643
761,358,644
710,344,646
659,324,652
620,301,655
585,278,659
555,249,665
534,221,662
522,190,663
521,163,657
531,134,646
544,103,635
568,69,626
598,29,618
632,-11,599
668,-50,585
705,-86,567
734,-117,549
760,-139,531
771,-151,507
769,-159,490
754,-157,464
731,-145,439
698,-127,409
659,-96,379
617,-65,345
575,-28,308
541,11,266
510,56,227
484,98,188
471,141,147
464,178,109
457,217,73
458,250,44
458,285,17
455,312,6
449,335,3
435,357,5
413,373,10
387,382,26
364,387,36
328,394,47
293,400,62
252,400,77
205,402,87
163,398,94
120,397,99
79,397,98
41,395,98
3,398,99
-27,395,96
-62,392,94
-87,378,96
-111,359,102
-136,323,109
-154,282,118
-169,224,127
-181,156,143
-193,86,158
-204,14,170
-208,-53,179
-212,-103,188
-206,-150,188
-202,-184,187
-198,-205,184
-195,-221,176
-192,-225,166
-189,-227,155
-191,-223,141
-192,-220,130
-196,-221,117
-199,-232,106
-203,-255,97
-213,-286,88
-228,-331,84
-242,-371,79
-262,-421,78
-287,-468,73
-312,-507,73
-338,-538,68
-365,-565,65
-393,-584,58
-425,-594,52
-451,-593,47
-479,-583,33
-508,-568,17
-545,-544,-7
-587,-524,-29
-632,-507,-52
-686,-495,-76
-746,-488,-99
-808,-493,-124
-871,-500,-144
-936,-510,-172
-1006,-520,-199
-1072,-531,-225
-1141,-540,-255
-1202,-545,-286
-1263,-548,-320
-1323,-548,-355
-1376,-550,-390
-1427,-550,-429
-1473,-553,-464
-1524,-564,-501
-1578,-574,-539
-1634,-584,-567
-1696,-590,-599
-1764,-597,-624
-1835,-598,-648
-1908,-599,-671
-1982,-603,-695
-2059,-601,-717
-2132,-604,-738
-2205,-605,-759
-2274,-613,-783
-2345,-619,-810
-2420,-631,-839
-2493,-645,-867
-2567,-660,-895
-2645,-679,-925
-2720,-701,-955
-2794,-714,-983
-2864,-729,-1011
-2927,-746,-1038
-2967,-772,-1068
-2981,-815,-1097
-2965,-874,-1126
-2937,-935,-1153
-2906,-1004,-1163
-2891,-1065,-1169
-2886,-1114,-1155
-2885,-1148,-1139
-2877,-1174,-1118
-2877,-1182,-1089
-2875,-1176,-1057
-2871,-1158,-1023
-2854,-1128,-986
-2835,-1091,-947
-2809,-1045,-911
-2771,-999,-872
-2731,-948,-835
-2685,-902,-792
-2640,-851,-749
-2595,-803,-702
-2548,-761,-653
-2499,-719,-608
-2457,-675,-561
-2414,-640,-517
-2372,-608,-471
-2336,-581,-434
-2292,-561,-396
-2249,-541,-362
-2210,-521,-330
-2168,-507,-297
-2127,-485,-271
-2095,-468,-244
-2063,-447,-219
-2037,-427,-197
-2018,-404,-176
-2003,-379,-152
-1992,-355,-132
-1979,-336,-108
-1969,-322,-85
-1959,-315,-67
-1949,-313,-48
-1936,-320,-28
-1926,-331,-14
-1916,-354,-6
-1903,-382,0
-1886,-413,8
-1864,-449,5
-1838,-489,6
-1805,-520,-3
-1767,-543,-13
-1722,-562,-22
-1678,-565,-29
-1625,-566,-37
-1571,-555,-44
-1513,-545,-49
-1453,-532,-49
-1399,-518,-50
-1344,-498,-47
-1297,-481,-43
-1246,-465,-34
-1209,-453,-29
-1171,-444,-22
-1135,-443,-17
-1102,-448,-14
-1071,-463,-10
-1038,-478,-8
-1002,-501,-8
-963,-519,-12
-927,-541,-11
-883,-560,-13
-838,-572,-15
-794,-581,-15
-748,-585,-17
-707,-583,-10
-667,-573,-9
-635,-560,3
-611,-538,12
-589,-515,23
-573,-485,41
-559,-459,58
-551,-437,79
-551,-423,102
-554,-411,122
-558,-404,142
-563,-400,163
-567,-399,189
-567,-396,210
-558,-399,223
-536,-406,238
-501,-413,244
-456,-419,250
-409,-424,256
-356,-426,257
-298,-430,265
-236,-428,272
-181,-426,279
-125,-420,289
-84,-408,302
-47,-394,311
-19,-373,331
-1,-354,346
5,-331,366
9,-311,384
9,-296,399
11,-281,408
15,-275,419
24,-275,422
40,-283,428
58,-295,429
84,-304,430
109,-318,432
133,-330,428
159,-340,428
183,-352,432
198,-357,433
205,-365,442
202,-366,449
193,-366,455
178,-366,467
160,-364,473
147,-361,484
136,-352,480
128,-349,477
123,-341,474
119,-334,468
114,-330,460
110,-326,450
110,-323,444
115,-320,436
113,-313,426
120,-308,418
128,-298,416
136,-289,408
139,-271,407
145,-258,406
150,-237,403
159,-221,408
168,-201,405
178,-179,402
197,-162,398
218,-141,395
247,-122,392
275,-108,391
303,-97,388
329,-97,386
352,-102,387
370,-114,387
382,-130,389
388,-150,392
387,-171,394
387,-190,396
374,-207,398
353,-216,395
338,-232,390
323,-244,384
312,-260,374
311,-266,359
316,-265,343
325,-255,323
341,-245,301
362,-232,278
379,-224,256
399,-215,240
418,-203,218
436,-196,207
447,-188,191
452,-179,182
453,-167,175
451,-161,175
442,-158,174
426,-159,176
400,-165,179
377,-166,185
347,-167,191
313,-160,197
288,-146,200
258,-125,200
231,-109,196
209,-98,196
194,-92,191
188,-89,184
189,-89,173
200,-91,161
219,-85,150
242,-78,130
269,-62,112
304,-49,94
341,-36,78
368,-30,65
387,-24,53
398,-23,44
402,-26,32
403,-36,32
394,-49,28
385,-54,26
377,-56,19
371,-45,13
375,-26,0
385,-5,-16
406,22,-33
429,48,-49
458,70,-71
484,89,-82
505,107,-99
530,124,-116
553,145,-123
568,163,-137
579,174,-147
581,180,-151
577,174,-156
568,164,-161
559,146,-157
544,123,-163
531,103,-161
531,78,-160
544,58,-161
567,35,-160
596,8,-160
631,-8,-158
671,-17,-160
712,-21,-160
749,-22,-162
775,-18,-169
798,-10,-172
813,2,-175
819,14,-177
819,30,-180
813,50,-178
805,77,-179
794,103,-174
782,136,-174
770,168,-178
763,201,-177
753,227,-178
750,247,-185
743,255,-184
731,255,-189
718,249,-191
702,227,-202
685,206,-205
665,177,-204
645,152,-208
629,134,-207
614,121,-208
598,113,-205
590,110,-195
578,103,-189
570,100,-180
558,92,-171
546,89,-160
533,88,-153
523,89,-146
511,90,-142
498,91,-138
483,94,-133
467,94,-132
446,98,-128
427,92,-125
407,87,-122
386,77,-126
374,66,-127
363,52,-137
354,41,-142
349,27,-148
347,10,-155
346,-11,-156
345,-34,-159
345,-59,-157
336,-88,-150
329,-112,-148
323,-128,-140
308,-123,-139
291,-112,-138
271,-106,-132
251,-110,-127
237,-133,-118
232,-170,-109
233,-210,-104
250,-249,-98
276,-286,-97
314,-314,-94
359,-342,-91
407,-368,-99
440,-390,-102
465,-411,-107
487,-439,-111
497,-455,-116
495,-468,-119
483,-468,-124
465,-458,-121
440,-436,-121
413,-401,-122
389,-365,-127
364,-326,-132
340,-287,-140
319,-252,-144
303,-218,-152
294,-193,-159
286,-172,-173
284,-155,-180
283,-144,-191
283,-134,-197
286,-128,-205
289,-125,-210
292,-122,-220
291,-119,-219
292,-119,-218
283,-115,-215
279,-118,-208
270,-118,-200
254,-119,-190
244,-114,-180
226,-107,-175
205,-96,-167
191,-92,-160
176,-86,-150
158,-81,-141
146,-78,-136
134,-81,-123
121,-81,-118
114,-88,-106
105,-90,-96
96,-96,-86
83,-97,-72
71,-89,-59
57,-80,-52
40,-65,-46
33,-45,-36
27,-25,-30
27,-12,-25
34,-9,-18
44,-11,-10
48,-23,-6
54,-32,0
63,-55,6
65,-78,11
73,-102,18
71,-127,18
70,-151,23
72,-175,24
73,-193,29
74,-207,25
74,-218,27
74,-220,24
75,-216,23
77,-210,20
82,-206,19
91,-194,21
96,-174,17
108,-155,14
114,-139,13
122,-119,14
126,-100,11
126,-78,9
126,-64,9
121,-48,10
116,-38,13
107,-35,14
100,-32,19
91,-34,20
87,-37,23
86,-40,32
86,-42,34
85,-42,38
90,-41,43
94,-43,49
97,-46,58
97,-45,57
97,-50,61
96,-49,70
86,-51,78
73,-49,86
54,-44,93
41,-40,100
20,-33,104
0,-24,106
-13,-19,111
-28,-9,112
-36,1,109
-41,11,106
-42,15,96
-36,24,90
-35,33,84
-27,39,74
-22,46,70
-22,52,66
-23,60,64
-28,68,63
-40,71,65
-54,73,65
-72,75,73
-89,79,74
-108,80,81
-126,84,83
-139,86,89
-148,90,92
-148,92,99
-146,94,98
-138,97,99
-129,100,99
-118,108,99
-105,111,98
-92,117,95
-82,127,91
-75,128,88
-66,130,80
-57,136,78
-53,138,72
-48,141,68
-44,144,67
-40,148,59
-41,158,59
-51,172,59
-60,181,58
-69,187,59
-84,190,65
-93,191,65
-107,191,70
-114,191,74
-119,191,79
-116,190,80
-114,184,87
-109,179,90
-107,176,91
-99,174,93
-94,172,89
-89,170,88
-82,167,81
-72,166,75
-60,164,67
-50,169,57
-36,172,49
-28,180,38
-21,183,31
-19,189,26
-18,197,26
-18,207,26
-19,215,30
-27,222,38
-36,224,46
-45,225,56
-58,219,68
-74,218,76
-92,218,89
-105,213,93
-121,212,102
-128,213,103
-134,219,103
-133,233,99
-132,253,92
-127,268,83
-119,290,73
-107,310,60
-94,333,46
-79,354,35
-62,372,25
-49,384,19
-38,390,18
-30,391,24
-31,391,32
-33,385,35
-43,379,41
-56,376,46
-69,376,41
-70,380,30
-58,387,12
-39,397,-9
-13,404,-30
21,415,-51
66,425,-74
115,440,-94
171,451,-108
224,469,-125
277,494,-138
328,523,-144
370,552,-142
403,591,-136
431,629,-124
457,671,-114
480,717,-104
511,762,-94
550,811,-89
592,856,-84
641,906,-79
689,950,-72
734,1000,-70
782,1045,-73
830,1081,-75
882,1118,-77
935,1153,-79
991,1197,-79
1044,1240,-76
1100,1271,-66
1158,1293,-49
1225,1297,-23
1312,1283,11
1419,1254,49
1566,1215,101
1754,1182,159
1973,1147,219
2221,1122,292
2481,1107,373
2737,1097,455
2980,1098,550
3190,1113,647
3368,1143,752
3505,1178,857
3617,1221,959
3708,1261,1056
3786,1296,1147
3858,1328,1234
3935,1351,1309
4015,1362,1383
4096,1369,1448
4185,1367,1513
4277,1361,1575
4370,1355,1636
4467,1353,1697
4561,1357,1761
4644,1357,1827
4715,1359,1888
4780,1365,1948
4836,1363,2001
4877,1363,2051
4908,1357,2095
4921,1342,2137
4931,1322,2166
4930,1300,2191
4938,1267,2206
4938,1229,2218
4938,1191,2223
4932,1153,2229
4930,1115,2234
4918,1085,2229
4896,1052,2224
4860,1022,2219
4809,985,2215
4749,942,2205
4672,889,2194
4585,830,2185
4497,766,2177
4414,702,2169
4339,651,2150
4269,622,2123
4199,619,2084
4138,628,2037
4078,640,1984
4000,659,1931
3908,676,1885
3798,694,1847
3680,706,1804
3556,716,1763
3424,710,1729
3285,696,1691
3146,669,1656
3009,644,1621
2886,603,1580
2772,557,1543
2666,509,1503
2574,454,1461
2499,386,1420
2438,317,1373
2393,253,1322
2356,190,1270
2322,131,1220
2297,87,1164
2278,56,1112
2262,32,1061
2255,15,1006
2250,7,954
2241,2,907
2220,-2,864
2191,-5,826
2152,0,792
2096,-1,763
2029,-1,729
1952,0,695
1876,-5,656
1800,-9,611
1736,-16,564
1679,-18,517
1638,-19,469
1618,-16,421
1622,-18,373
1643,-10,328
1680,-3,290
1728,7,256
1783,19,227
1833,33,205
1878,45,192
1908,58,183
1929,73,178
1934,90,173
1922,109,163
1896,130,163
1851,148,153
1801,174,157
1744,197,152
1683,221,148
1635,246,149
1584,271,144
1539,298,139
1499,324,133
1469,355,128
1440,387,115
1414,417,106
1389,450,91
1375,477,78
1363,505,59
1356,523,43
1348,542,28
1341,560,18
1334,576,6
1324,588,3
1313,596,5
1300,594,15
1280,592,21
1259,584,30
1234,583,33
1210,582,34
1196,579,28
1192,572,19
1201,558,7
1217,544,-7
1241,533,-23
1264,534,-35
1289,539,-38
1301,535,-35
1311,529,-25
1308,505,-7
1298,470,8
1276,420,36
1245,354,69
1198,289,113
1137,223,155
1069,151,208
998,81,255
934,2,301
867,-64,346
815,-132,389
773,-184,430
740,-230,469
706,-258,508
673,-270,539
643,-274,566
611,-269,594
590,-257,608
576,-240,611
575,-216,608
583,-176,588
598,-130,557
621,-76,518
645,-19,465
672,38,406
704,95,344
729,149,284
749,190,224
764,221,166
773,240,119
774,251,71
766,251,36
744,250,2
715,249,-34
697,249,-66
671,255,-102
653,274,-129
628,297,-151
603,328,-167
579,358,-178
553,397,-188
543,436,-194
536,475,-195
536,515,-194
541,555,-191
546,588,-180
554,603,-170
560,607,-151
567,607,-131
565,610,-107
557,602,-74
544,587,-37
523,553,4
497,512,37
471,458,80
433,391,113
392,317,152
340,235,192
283,152,232
218,62,274
156,-32,314
93,-124,350
34,-223,382
-17,-317,414
-55,-412,434
-88,-497,453
-105,-574,463
-119,-627,467
-123,-669,469
-123,-687,466
-119,-689,462
-108,-680,456
-98,-652,444
-88,-620,436
-77,-575,429
-64,-527,420
-55,-469,413
-46,-410,403
-36,-346,397
-34,-288,385
-28,-225,376
-25,-171,370
-21,-123,359
-10,-80,348
-1,-44,338
6,-14,326
15,6,323
23,21,319
29,26,316
30,26,312
34,13,307
31,-4,308
30,-23,309
28,-46,310
33,-68,310
35,-89,315
41,-111,314
43,-131,319
48,-142,316
48,-154,317
51,-165,320
50,-172,319
49,-173,324
51,-173,322
50,-170,324
58,-165,320
66,-159,315
82,-149,311
95,-142,308
111,-136,304
119,-131,304
127,-120,308
128,-105,310
128,-95,317
128,-72,324
133,-55,326
142,-26,331
155,8,330
178,40,333
206,77,329
242,111,326
285,135,321
329,160,321
377,172,322
427,178,324
472,182,335
520,183,347
564,182,366
600,175,387
629,167,409
650,152,436
666,142,467
687,130,493
715,126,519
760,126,542
820,131,562
907,157,574
1021,198,587
1146,257,597
1286,314,611
1424,356,625
1547,381,642
1650,405,671
1727,436,699
1772,482,730
1802,529,762
1806,577,799
1790,632,843
1758,678,906
1711,710,970
1656,731,1046
1608,732,1126
1560,718,1212
1515,691,1297
1466,653,1386
1422,602,1474
1384,552,1560
1356,496,1630
1336,443,1696
1328,386,1752
1332,327,1795
1341,267,1832
1359,218,1852
1374,160,1866
1397,108,1874
1426,63,1873
1455,23,1862
1483,-7,1848
1501,-31,1832
1518,-47,1811
1528,-60,1795
1534,-59,1774
1543,-64,1754
1553,-60,1730
1562,-47,1709
1567,-34,1693
1566,-9,1670
1562,19,1653
1556,52,1639
1536,89,1623
1516,132,1615
1485,172,1607
1460,207,1600
1433,236,1594
1401,265,1594
1373,284,1588
1350,303,1583
1333,318,1574
1316,329,1563
1307,338,1549
1299,345,1530
1296,355,1505
1303,369,1478
1314,383,1447
1321,405,1418
1339,426,1389
1354,458,1360
1372,484,1330
1388,508,1303
1410,535,1277
1437,555,1249
1460,574,1221
1485,589,1198
1505,595,1181
1522,599,1165
1534,598,1150
1540,597,1137
1548,589,1126
1551,578,1112
1548,566,1096
1545,550,1077
1541,524,1063
1521,499,1052
1502,466,1041
1477,427,1037
1446,386,1027
1409,346,1016
1368,299,999
1327,250,984
1285,199,970
1242,148,950
1202,91,934
1161,33,919
1110,-22,897
1069,-80,875
1019,-142,852
971,-200,835
919,-263,809
865,-320,785
811,-381,759
754,-438,725
697,-492,694
638,-552,665
573,-612,632
502,-669,604
429,-731,576
346,-791,549
261,-856,529
168,-919,502
73,-980,481
-27,-1043,454
-122,-1109,423
-227,-1174,392
-323,-1235,354
-417,-1298,313
-505,-1364,266
-589,-1422,221
-677,-1482,170
-768,-1537,109
-856,-1596,53
-956,-1655,-6
-1060,-1713,-69
-1167,-1762,-134
-1275,-1812,-201
-1379,-1855,-261
-1481,-1890,-324
-1576,-1926,-380
-1664,-1953,-438
-1744,-1976,-485
-1813,-1989,-531
-1867,-2002,-568
-1911,-2009,-602
-1951,-2007,-636
-1983,-2000,-665
-2006,-1994,-690
-2015,-1984,-713
-2014,-1979,-735
-2002,-1966,-758
-1980,-1951,-784
-1946,-1929,-808
-1901,-1891,-837
-1846,-1841,-870
-1783,-1777,-904
-1717,-1704,-936
-1646,-1637,-969
-1580,-1561,-995
-1521,-1493,-1021
-1467,-1429,-1042
-1421,-1377,-1053
-1383,-1330,-1059
-1354,-1292,-1060
-1331,-1264,-1057
-1314,-1248,-1044
-1302,-1240,-1036
-1291,-1244,-1033
-1274,-1245,-1045
-1252,-1244,-1057
-1228,-1252,-1072
-1210,-1263,-1086
-1194,-1275,-1091
-1174,-1291,-1099
-1151,-1304,-1108
-1125,-1309,-1112
-1091,-1311,-1112
-1050,-1312,-1112
-1006,-1312,-1105
-954,-1304,-1097
-900,-1297,-1081
-848,-1290,-1063
-787,-1273,-1038
-727,-1253,-1007
-671,-1226,-972
-622,-1198,-929
-574,-1159,-879
-523,-1114,-830
-473,-1057,-784
-429,-996,-738
-385,-928,-689
-337,-857,-647
-293,-775,-606
-249,-701,-569
-205,-630,-538
-163,-562,-506
-116,-500,-479
-74,-445,-453
-32,-401,-431
3,-363,-408
31,-335,-385
58,-319,-365
77,-311,-344
88,-315,-326
101,-325,-304
108,-335,-281
110,-350,-259
109,-356,-236
105,-355,-214
102,-341,-196
100,-319,-174
103,-287,-154
106,-251,-136
113,-205,-118
120,-153,-100
133,-97,-86
146,-43,-69
170,11,-54
190,61,-43
211,102,-30
231,137,-18
249,167,-2
270,191,12
284,204,27
296,205,38
303,201,52
310,185,64
318,160,72
322,139,83
331,115,92
342,92,94
356,73,94
370,57,93
390,56,91
408,54,90
426,62,92
448,78,87
472,101,89
490,128,91
505,154,96
515,179,102
521,204,114
529,226,127
546,251,137
562,272,153
582,289,163
604,303,182
627,315,197
655,332,214
681,351,233
707,380,249
732,415,262
756,450,270
793,483,276
830,520,279
869,553,283
908,576,289
942,599,292
973,620,298
1004,636,300
1022,649,301
1037,658,297
1052,665,298
1063,670,297
1070,673,299
1080,680,303
1090,688,302
1100,692,304
1112,695,302
1125,705,301
1133,707,299
1150,716,301
1160,718,304
1173,719,300
1188,717,304
1195,716,304
1194,717,306
1190,719,311
1184,714,316
1176,708,326
1164,709,330
1154,700,339
1145,694,346
1140,690,348
1133,684,356
1129,679,366
1126,672,369
1126,668,374
1133,659,379
1142,649,386
1153,643,395
1166,637,396
1180,626,402
1195,617,404
1211,604,412
1219,590,419
1229,571,430
1235,547,434
1236,517,444
1239,485,455
1238,446,468
1239,405,478
1242,364,489
1244,327,499
1245,293,511
1244,262,522
1238,234,532
1229,209,544
1218,192,550
1208,176,564
1194,171,573
1181,165,588
1169,162,596
1159,157,609
1147,151,618
1141,146,627
1142,137,637
1145,126,647
1151,123,651
1164,109,662
1174,97,665
1191,88,674
1209,78,679
1220,68,684
1236,56,693
1241,46,701
1239,31,709
1234,18,719
1224,4,728
1213,-18,740
1198,-39,746
1182,-57,750
1165,-81,757
1143,-98,758
1119,-117,760
1095,-134,757
1072,-150,752
1046,-165,747
1018,-181,739
993,-200,727
965,-219,709
933,-252,694
898,-283,674
866,-317,651
832,-357,629
794,-402,603
758,-448,578
728,-504,551
701,-567,523
670,-631,495
644,-699,468
611,-770,446
574,-840,424
534,-916,402
495,-987,373
459,-1059,353
425,-1126,330
394,-1194,304
361,-1253,285
337,-1304,264
320,-1357,245
302,-1398,229
289,-1434,214
282,-1461,200
271,-1486,189
257,-1504,173
245,-1523,170
222,-1533,162
208,-1544,157
194,-1546,151
188,-1544,147
187,-1538,141
190,-1526,134
200,-1508,127
208,-1483,119
222,-1454,107
235,-1422,99
252,-1386,94
272,-1350,87
294,-1316,78
315,-1285,76
340,-1254,78
370,-1225,79
401,-1189,84
430,-1153,88
461,-1120,90
484,-1083,92
505,-1043,94
522,-998,93
534,-948,98
546,-900,102
553,-848,109
552,-800,116
559,-758,122
563,-717,118
569,-684,114
579,-657,105
586,-632,96
597,-610,84
608,-592,75
620,-572,61
629,-553,50
638,-530,37
653,-514,31
662,-495,26
668,-470,24
674,-450,26
680,-426,27
686,-399,31
686,-371,29
688,-343,28
688,-319,21
694,-298,19
696,-277,9
700,-257,4
708,-238,-5
717,-219,-15
732,-199,-27
744,-177,-38
758,-154,-48
768,-135,-58
779,-110,-65
786,-88,-75
792,-65,-81
795,-44,-86
798,-21,-92
795,-2,-95
791,11,-99
789,24,-103
790,34,-104
793,45,-108
801,57,-116
806,63,-124
819,61,-130
828,58,-134
843,59,-140
857,60,-148
868,63,-158
872,71,-161
875,77,-164
877,88,-175
877,98,-177
878,106,-180
876,116,-182
876,123,-178
876,133,-180
884,136,-184
894,140,-187
911,144,-190
931,150,-197
956,159,-207
985,166,-212
1012,175,-226
1041,182,-240
1069,196,-252
1089,207,-262
1106,220,-269
1126,228,-280
1132,237,-288
1139,252,-293
1143,255,-298
1144,266,-300
1148,271,-303
1150,269,-306
1156,266,-307
1168,256,-309
1191,246,-309
1210,233,-310
1235,221,-309
1264,204,-305
1292,187,-301
1314,177,-295
1340,169,-292
1357,162,-288
1374,158,-285
1383,162,-279
1386,167,-279
1386,181,-275
1383,193,-276
1377,213,-277
1367,238,-278
1357,261,-279
1345,281,-281
1337,304,-286
1327,319,-289
1318,337,-291
1310,353,-295
1302,363,-298
1293,374,-301
1285,379,-306
1279,383,-306
1278,387,-313
1281,388,-322
1288,392,-326
1288,398,-332
1288,403,-342
1293,410,-349
1293,418,-358
1297,426,-361
1298,433,-370
1301,439,-376
1302,448,-380
1298,454,-386
1297,460,-386
1291,465,-385
1287,469,-381
1283,467,-381
1283,465,-377
1283,457,-375
1291,448,-373
1305,439,-370
1314,430,-368
1324,421,-374
1331,417,-377
1346,417,-378
1352,416,-377
1352,483,-382
1358,510,-383
1363,519,-380
1364,515,-376
1366,516,-372
1363,523,-368
1354,532,-363
1349,537,-360
1348,538,-356
1351,553,-357
1355,561,-355
1352,564,-353
1349,566,-347
1352,562,-340
1351,554,-334
1340,553,-321
1332,553,-310
1317,556,-300
1309,560,-294
1298,562,-288
1292,559,-283
1284,554,-277
1280,544,-274
1277,534,-271
1271,514,-267
1267,498,-268
1267,474,-268
1263,455,-267
1265,433,-272
1268,411,-272
1273,398,-268
1278,381,-266
1282,377,-258
1289,375,-248
1296,377,-237
1298,388,-222
1306,405,-207
1318,431,-190
1333,459,-169
1358,494,-147
1386,532,-122
1413,575,-93
1454,619,-63
1491,667,-31
1534,712,4
1580,765,44
1625,819,92
1667,873,138
1715,925,192
1765,981,253
1816,1036,313
1870,1094,381
1928,1149,443
1986,1204,509
2044,1268,572
2106,1326,631
2158,1382,691
2211,1441,757
2260,1492,817
2306,1547,884
2344,1593,939
2370,1633,988
2398,1666,1036
2420,1690,1071
2442,1703,1103
2457,1712,1129
2470,1723,1148
2479,1734,1162
2489,1737,1171
2493,1737,1172
2495,1735,1173
2499,1731,1169
2496,1719,1159
2494,1710,1146
2485,1691,1132
2472,1680,1125
2449,1661,1114
2419,1649,1107
2388,1634,1097
2350,1617,1091
2310,1600,1084
2265,1581,1071
2217,1560,1057
2167,1525,1040
2118,1487,1014
2071,1449,988
2021,1402,961
1971,1351,931
1916,1298,901
1866,1245,873
1815,1192,847
1767,1151,819
1717,1114,797
1670,1084,770
1626,1067,748
1576,1048,724
1527,1036,698
1481,1029,683
1436,1023,664
1389,1018,647
1341,1017,629
1300,1010,612
1259,994,594
1223,971,571
1190,939,546
1157,892,518
1124,837,492
1087,801,478
1051,764,477
1012,747,472
972,730,476
941,721,478
916,718,473
896,711,468
879,702,463
865,696,458
849,689,452
832,679,447
816,665,442
798,650,442
779,624,439
758,592,437
738,551,441
720,510,438
702,470,432
679,441,425
662,416,417
642,399,407
626,383,398
608,374,391
593,363,382
581,352,371
576,335,363
568,324,357
567,310,351
567,301,345
567,287,343
565,274,340
567,253,343
567,230,346
573,201,347
576,168,351
585,140,349
601,108,347
612,75,345
624,42,340
632,3,333
638,-32,326
641,-69,321
643,-98,319
639,-130,307
635,-150,307
623,-163,299
613,-164,295
602,-157,292
588,-132,287
576,-102,280
562,-67,268
550,-23,258
533,16,243
517,56,233
505,94,225
488,118,215
468,138,207
456,151,196
444,142,188
427,125,184
412,97,178
397,60,175
376,24,180
357,-19,184
336,-67,190
306,-115,196
278,-156,198
243,-200,203
208,-238,205
177,-279,197
147,-312,181
122,-349,169
104,-378,153
84,-411,137
75,-436,127
63,-456,108
62,-473,87
61,-493,62
67,-507,38
63,-511,11
68,-521,-4
65,-529,-22
69,-534,-35
69,-530,-48
73,-519,-63
80,-510,-77
82,-496,-88
83,-483,-96
82,-472,-98
77,-460,-104
73,-449,-99
68,-443,-103
57,-439,-97
41,-433,-98
22,-437,-96
4,-438,-98
-15,-440,-99
-30,-439,-101
-46,-437,-108
-64,-437,-114
-79,-435,-119
-90,-434,-128
-103,-428,-137
-115,-415,-143
-128,-404,-150
-152,-388,-155
-177,-376,-154
-212,-364,-148
-248,-350,-137
-287,-339,-121
-331,-332,-110
-369,-325,-94
-404,-325,-79
-424,-332,-64
-434,-336,-62
-434,-349,-56
-423,-369,-53
-398,-393,-57
-365,-411,-64
-317,-432,-72
-271,-449,-82
-222,-464,-94
-172,-477,-100
-127,-481,-111
-85,-466,-119
-49,-437,-129
-18,-399,-137
8,-361,-147
28,-318,-161
45,-291,-164
58,-265,-175
74,-244,-180
86,-227,-188
95,-211,-192
100,-207,-201
96,-196,-209
90,-190,-214
80,-179,-220
69,-164,-224
56,-147,-225
51,-129,-225
40,-96,-228
32,-57,-224
17,-20,-222
1,13,-215
-15,42,-207
-26,57,-194
-38,61,-183
-46,50,-171
-50,30,-157
-52,12,-141
-55,-10,-132
-61,-20,-123
-69,-30,-109
-80,-21,-104
-90,4,-100
-96,42,-100
-96,91,-99
-94,147,-105
-94,213,-110
-79,283,-117
-63,351,-129
-43,415,-141
-21,469,-153
-6,517,-160
4,555,-167
5,589,-166
-5,616,-163
-16,637,-155
-33,655,-141
-46,673,-130
-54,690,-116
-51,714,-105
-44,739,-91
-30,766,-84
-8,813,-84
11,865,-92
23,924,-100
21,965,-108
12,1009,-118
-1,1042,-133
-11,1061,-153
-3,1051,-175
17,1023,-202
50,962,-234
86,865,-260
112,735,-281
141,579,-309
177,417,-350
205,289,-395
217,206,-446
217,160,-499
212,140,-535
200,125,-563
183,96,-571
158,45,-557
126,-33,-518
90,-129,-461
64,-242,-395
46,-357,-312
30,-460,-216
24,-557,-109
24,-653,9
25,-741,116
26,-806,213
31,-859,292
38,-888,355
50,-895,390
59,-929,405
56,-940,412
52,-923,408
42,-881,386
24,-814,364
-3,-742,341
-34,-669,319
-65,-596,296
-93,-519,272
-113,-446,241
-126,-384,214
-123,-342,195
-115,-328,176
-110,-337,168
-105,-356,163
-98,-372,168
-102,-380,176
-108,-383,185
-121,-384,192
-136,-387,196
-145,-404,205
-156,-422,208
-164,-446,200
-165,-473,189
-159,-498,175
-145,-523,156
-121,-554,137
-90,-582,111
-56,-610,99
-29,-628,82
0,-634,76
25,-630,71
44,-628,72
59,-621,82
68,-616,97
71,-612,115
69,-604,135
65,-592,154
52,-574,165
37,-552,177
22,-525,187
10,-489,183
0,-448,177
-9,-405,167
-8,-365,161
-2,-323,143
5,-280,132
19,-246,121
35,-216,106
53,-193,94
70,-167,86
90,-143,76
101,-122,73
110,-105,72
112,-88,71
115,-67,69
111,-45,72
101,-24,72
85,-2,73
69,19,74
54,40,71
49,52,66
41,61,66
37,71,59
40,75,60
45,87,57
56,91,52
65,99,52
71,107,56
80,124,62
88,141,66
94,169,67
101,198,69
104,235,70
102,274,70
96,313,76
90,349,82
81,388,91
76,427,95
68,464,104
57,503,108
43,546,114
36,598,117
22,656,121
7,725,118
-3,801,113
-17,878,105
-34,961,92
-48,1038,79
-53,1091,71
-50,1129,59
-32,1140,44
0,1112,35
52,1039,32
107,941,29
187,844,26
274,751,20
353,656,12
412,559,13
441,473,14
421,417,16
359,400,2
252,420,-9
120,452,-20
-4,445,-30
-89,403,-24
-103,376,-45
-75,323,-78
-68,192,-109
-91,40,-139
-147,-90,-152
-224,-170,-171
-312,-195,-186
-379,-180,-202
-423,-146,-222
-421,-118,-235
-388,-107,-247
-326,-136,-253
-250,-198,-251
-167,-289,-240
-85,-383,-236
-13,-491,-212
51,-598,-189
92,-715,-159
113,-831,-125
94,-935,-97
44,-1017,-65
-26,-1069,-43
-109,-1086,-34
-188,-1064,-36
-258,-997,-48
-305,-906,-74
-332,-803,-106
-342,-700,-142
-337,-596,-181
-316,-503,-223
-285,-418,-261
-249,-340,-297
-207,-280,-328
-159,-225,-353
-113,-178,-367
-70,-135,-372
-35,-106,-375
-10,-88,-365
3,-80,-351
9,-87,-330
7,-104,-307
-5,-128,-280
-17,-154,-253
-19,-192,-226
-15,-228,-206
-2,-260,-188
12,-293,-165
33,-319,-146
46,-335,-127
63,-353,-110
85,-365,-91
102,-370,-75
127,-375,-62
151,-370,-49
171,-356,-39
193,-337,-25
211,-311,-19
229,-283,-13
240,-253,-5
247,-229,0
255,-208,5
257,-189,5
266,-181,11
275,-178,7
290,-184,5
308,-187,6
332,-199,4
357,-212,3
380,-225,-2
406,-242,-7
435,-256,-7
464,-277,-6
492,-296,-4
517,-306,-6
545,-317,-6
578,-319,-13
613,-318,-21
656,-316,-30
701,-313,-39
746,-307,-52
791,-306,-63
828,-310,-68
864,-323,-67
893,-335,-69
922,-351,-69
946,-359,-75
977,-363,-86
1004,-357,-99
1034,-346,-107
1067,-342,-117
1105,-348,-126
1144,-358,-140
1188,-372,-156
1243,-389,-175
1293,-418,-193
1327,-459,-212
1348,-511,-218
1350,-561,-227
1334,-608,-228
1298,-649,-225
1240,-683,-216
1169,-702,-211
1089,-720,-198
1006,-727,-189
921,-730,-189
834,-732,-193
748,-732,-201
661,-737,-216
586,-755,-237
518,-778,-260
464,-815,-290
418,-863,-313
390,-917,-326
390,-967,-340
414,-1011,-362
451,-1042,-387
497,-1065,-416
539,-1078,-427
577,-1074,-437
607,-1040,-440
632,-984,-438
645,-901,-433
638,-803,-423
618,-697,-401
586,-590,-376
547,-493,-343
504,-408,-310
469,-348,-280
445,-322,-253
429,-321,-228
415,-344,-197
398,-389,-166
379,-444,-131
356,-504,-98
329,-562,-69
300,-606,-40
270,-631,-18
237,-634,4
210,-614,23
191,-579,36
176,-538,48
165,-494,49
151,-457,48
142,-423,47
137,-401,40
130,-389,27
126,-387,24
112,-369,17
85,-333,10
58,-281,6
25,-231,0
-5,-185,-8
-33,-153,-20
-52,-129,-36
-57,-112,-53
-37,-105,-74
-11,-108,-92
17,-119,-108
42,-134,-125
57,-136,-148
68,-116,-170
77,-68,-195
83,-6,-214
75,70,-229
67,158,-232
55,250,-234
40,334,-235
24,397,-243
12,442,-253
-1,472,-270
-13,502,-302
-30,544,-343
-46,598,-391
-69,648,-443
-84,690,-493
-100,717,-540
-105,733,-575
-106,745,-606
-101,741,-629
-89,720,-648
-70,691,-669
-43,674,-689
-36,668,-712
-56,672,-736
-95,675,-761
-151,667,-788
-194,659,-812
-231,670,-835
-265,709,-843
-297,746,-841
-307,761,-838
-297,764,-831
-265,755,-812
-219,760,-781
-169,794,-752
-117,843,-731
-71,904,-730
-30,948,-744
3,970,-764
21,976,-796
16,968,-830
-2,946,-860
-22,895,-889
-54,824,-897
-95,731,-886
-135,628,-861
-161,519,-836
-181,409,-809
-177,323,-782
-159,282,-771
-143,277,-770
-131,283,-792
-137,272,-832
-147,247,-892
-145,201,-958
-118,134,-1015
-75,67,-1054
6,17,-1066
122,32,-1031
231,138,-959
289,298,-866
264,469,-773
159,619,-702
4,728,-672
-170,803,-685
-338,846,-722
-479,856,-771
-598,835,-823
-692,777,-866
-771,694,-884
-826,588,-873
-844,480,-828
-819,416,-746
-756,433,-626
-629,533,-511
-437,754,-438
-211,1073,-406
-35,1383,-383
90,1639,-360
143,1831,-313
110,1948,-224
15,1990,-103
-84,1966,21
-159,1885,127
-226,1729,215
-293,1501,299
-345,1201,374
-329,840,417
-259,487,446
-140,218,471
-7,66,508
119,18,563
222,67,638
294,188,722
301,372,822
240,599,930
80,808,1043
-167,975,1144
-465,1098,1223
-769,1179,1272
-1029,1200,1284
-1245,1172,1265
-1390,1116,1225
-1449,1063,1168
-1435,1021,1097
-1357,977,1026
-1247,942,957
-1121,930,892
-1007,960,834
-927,1040,791
-894,1151,775
-902,1277,785
-945,1398,798
-1020,1522,825
-1102,1632,851
-1190,1730,874
-1277,1796,897
-1351,1826,920
-1392,1826,926
-1399,1797,919
-1371,1748,903
-1307,1682,873
-1218,1603,842
-1114,1489,813
-1027,1325,819
-987,1116,857
-1013,867,925
-1095,591,1003
-1219,334,1068
-1360,137,1116
-1500,-3,1134
-1621,-85,1107
-1699,-118,1055
-1748,-120,992
-1784,-92,921
-1795,-49,843
-1762,17,752
-1697,86,652
-1621,143,553
-1543,193,465
-1456,240,376
-1359,273,283
-1240,301,208
-1113,322,132
-978,346,67
-849,374,10
-730,412,-41
-630,465,-88
-555,533,-121
-511,616,-139
-481,703,-151
-448,789,-149
-408,864,-146
-365,921,-136
-321,959,-122
-278,973,-103
-236,969,-88
-200,946,-81
-172,922,-70
-155,880,-68
-132,803,-56
-116,723,-49
-97,632,-39
-77,540,-25
-56,457,-8
-37,388,7
-27,346,22
-20,321,40
-17,322,55
-12,343,64
-12,374,64
-2,413,73
0,451,67
3,491,64
0,530,62
-6,561,61
-16,583,60
-29,583,58
-36,572,52
-40,553,47
-40,530,38
-43,499,28
-48,470,15
-61,434,1
-80,404,-8
-104,383,-18
-131,375,-29
-157,379,-36
-184,384,-41
-201,392,-49
-198,424,-51
-193,454,-50
-175,487,-56
-151,530,-68
-117,566,-79
-73,592,-90
-33,614,-101
6,637,-106
29,647,-105
40,648,-93
31,639,-72
18,628,-59
9,606,-42
0,585,-30
0,567,-15
14,567,-6
41,579,-10
81,608,-13
132,645,-25
184,684,-38
244,724,-63
295,759,-77
339,785,-97
370,807,-111
392,818,-122
399,826,-133
405,827,-144
400,827,-152
390,823,-159
371,826,-159
353,824,-162
338,829,-163
322,841,-169
308,860,-170
295,879,-172
293,904,-173
292,930,-176
292,960,-177
300,983,-178
302,1006,-184
308,1020,-192
304,1027,-197
296,1029,-205
284,1023,-212
265,1013,-219
240,1001,-227
220,986,-234
194,973,-242
174,968,-251
160,967,-258
140,981,-263
129,1010,-272
118,1057,-281
109,1110,-282
96,1169,-282
80,1231,-285
60,1294,-288
39,1357,-288
23,1406,-284
11,1442,-273
6,1475,-254
13,1510,-224
27,1551,-195
60,1596,-161
101,1647,-148
140,1722,-150
166,1817,-175
175,1918,-221
158,2023,-282
122,2125,-350
72,2215,-419
23,2272,-473
-34,2285,-509
-85,2248,-521
-128,2174,-517
-154,2081,-504
-159,1980,-484
-149,1891,-464
-122,1827,-447
-81,1793,-427
-33,1789,-418
25,1802,-408
72,1833,-406
113,1861,-410
145,1895,-410
166,1927,-403
179,1937,-390
181,1913,-372
172,1843,-349
158,1726,-317
145,1556,-281
135,1373,-245
131,1211,-214
129,1103,-190
135,1065,-177
160,1125,-185
200,1295,-232
239,1559,-303
260,1870,-377
272,2214,-440
273,2553,-493
256,2852,-539
217,3115,-580
169,3325,-610
115,3470,-634
55,3545,-653
-5,3557,-658
-56,3516,-656
-85,3436,-644
-99,3345,-631
-91,3234,-609
-71,3117,-579
-45,2993,-538
-19,2879,-495
9,2774,-450
27,2661,-419
37,2557,-394
47,2478,-374
54,2427,-365
58,2396,-361
51,2389,-361
43,2398,-372
24,2412,-375
3,2426,-382
-25,2428,-386
-48,2433,-384
-74,2422,-384
-107,2400,-376
-148,2362,-364
-186,2320,-350
-219,2277,-333
-248,2249,-314
-265,2234,-292
-270,2249,-284
-263,2293,-284
-240,2348,-298
-224,2421,-319
-219,2492,-337
-226,2547,-354
-235,2588,-359
-250,2619,-371
-263,2635,-371
-277,2625,-364
-295,2579,-348
-313,2527,-326
-336,2468,-297
-357,2427,-276
-375,2400,-259
-374,2379,-252
-365,2364,-258
-358,2345,-266
-347,2337,-271
-347,2340,-275
-347,2339,-268
-348,2329,-262
-345,2308,-251
-343,2274,-236
-350,2222,-220
-363,2161,-205
-378,2101,-187
-391,2043,-166
-401,1983,-151
-399,1922,-134
-390,1870,-130
-373,1822,-131
-351,1787,-142
-325,1765,-161
-306,1756,-179
-285,1754,-190
-278,1755,-190
-280,1750,-183
-287,1741,-175
-300,1721,-161
-318,1695,-148
-337,1666,-131
-347,1621,-127
-345,1566,-130
-328,1499,-137
-301,1429,-150
-278,1358,-162
-258,1289,-169
-243,1223,-173
-231,1159,-170
-226,1107,-159
-226,1064,-145
-226,1030,-127
-225,1003,-109
-220,970,-92
-214,944,-78
-203,916,-76
-189,899,-77
-166,881,-83
-141,857,-98
-115,836,-123
-94,814,-147
-71,790,-170
-54,760,-190
-45,731,-207
-42,700,-217
-51,674,-212
-64,647,-206
-74,621,-192
-94,596,-172
-108,573,-155
-121,549,-132
-121,521,-120
-112,490,-106
-96,461,-98
-79,427,-88
-66,388,-81
-54,346,-70
-44,308,-66
-37,273,-65
-30,241,-66
-31,215,-71
-32,196,-72
-41,187,-76
-55,191,-82
-71,199,-87
-83,201,-94
-96,193,-99
-94,171,-96
-85,128,-93
-65,65,-92
-48,-10,-89
-30,-77,-94
-18,-128,-102
-10,-152,-118
1,-149,-138
10,-128,-155
19,-91,-168
26,-45,-177
35,5,-183
46,54,-184
63,92,-181
87,123,-165
112,142,-150
135,152,-131
158,147,-103
170,132,-76
183,110,-46
192,89,-23
204,64,3
213,45,25
219,22,48
216,4,69
202,-13,86
184,-29,101
169,-47,111
149,-57,119
132,-67,121
116,-72,122
114,-79,115
114,-85,112
120,-87,102
124,-89,98
119,-89,90
122,-90,95
117,-94,94
114,-99,95
107,-108,95
101,-120,97
92,-126,101
79,-134,109
65,-143,110
55,-146,116
46,-150,121
34,-150,123
22,-150,121
12,-146,114
5,-145,110
0,-138,98
-2,-132,91
-4,-121,80
-2,-106,68
0,-86,61
-2,-71,51
-3,-54,42
-9,-33,41
-16,-19,42
-26,-5,45
-36,6,44
-47,10,47
-56,9,45
-60,4,46
-65,-1,47
-61,-11,46
-56,-24,42
-47,-32,42
-45,-47,43
-36,-56,38
-25,-64,39
-20,-69,43
-11,-69,44
-3,-67,46
8,-63,47
17,-60,52
27,-64,57
32,-60,64
39,-63,75
47,-66,79
50,-76,83
53,-83,80
57,-95,84
63,-104,75
63,-118,75
61,-128,72
59,-136,63
53,-139,54
51,-138,48
51,-134,39
49,-128,32
45,-114,23
39,-101,19
34,-83,15
34,-61,15
33,-41,9
38,-19,3
42,-6,0
49,12,1
49,25,3
51,32,1
53,36,6
51,35,7
47,29,10
45,18,14
40,6,18
39,-3,14
39,-13,9
34,-23,10
31,-33,14
32,-44,12
31,-56,11
27,-61,18
21,-67,20
20,-69,23
29,-68,24
40,-68,25
57,-61,24
78,-56,25
98,-53,27
116,-40,28
139,-35,29
149,-24,29
160,-16,31
164,-1,33
163,-1,34
153,3,27
139,4,24
122,0,25
94,-1,22
67,-5,21
34,-10,20
2,-11,17
-30,-12,17
-61,-17,16
-90,-20,12
-117,-26,11
-137,-21,5
-158,-15,0
-175,-8,2
-187,-3,0
-194,2,-3
-193,9,-4
-189,14,-10
-185,18,-10
-174,22,-7
-167,24,-5
-153,22,0
-143,24,3
-132,19,6
-117,18,13
-108,14,15
-94,13,21
-78,11,22
-60,15,21
-41,14,21
-22,14,20
-8,18,12
5,20,11
7,20,7
14,18,6
18,16,4
16,17,2
18,16,-2
11,18,-2
10,16,-4
8,18,-5
6,15,-2
4,15,-2
6,6,-3
8,4,-3
12,-3,-2
16,-10,-3
20,-13,-4
22,-18,-3
24,-20,-5
28,-22,-7
33,-22,-11
35,-21,-10
34,-19,-9
33,-15,-10
30,-15,-8
26,-12,-6
19,-10,-6
13,-10,-8
7,-9,-10
3,-12,-13
-1,-14,-14
-4,-17,-16
-9,-18,-16
-11,-16,-14
-16,-18,-19
-14,-18,-15
-11,-16,-14
-8,-15,-17
2,-10,-19
10,-10,-18
8,-6,-14
10,-5,-10
9,-2,-6
5,-7,3
-3,-3,10
-6,-10,17
-3,-6,22
-3,-9,18
0,-10,18
4,-14,16
5,-20,13
9,-23,8
12,-32,9
12,-35,9
8,-38,7
3,-39,5
-2,-42,5
-7,-41,1
-12,-35,-2
-15,-30,-1
-18,-21,0
-16,-9,-3
-19,4,2
-14,17,4
-12,33,7
-10,45,14
-12,51,18
-12,57,24
-15,62,21
-17,62,22
-20,54,18
-24,48,7
-30,41,-4
-35,36,-18
-35,32,-31
-39,30,-37
-44,31,-40
-43,35,-38
-44,43,-35
-44,44,-27
-50,20,-12
-59,6,2
-63,0,15
-60,-11,32
-51,-16,46
-39,-5,53
-27,14,59
-9,17,65
1,37,65
13,51,71
28,61,75
39,75,69
50,91,70
61,101,61
74,107,51
81,112,38
90,106,26
92,96,12
87,84,1
85,69,-8
81,50,-11
72,38,-13
59,12,-14
47,9,-17
33,-11,-20
25,-24,-25
14,-23,-27
9,-30,-26
6,-38,-30
1,-37,-25
3,-38,-27
7,-30,-21
12,-20,-19
20,-8,-21
28,2,-18
42,7,-20
51,13,-21
59,20,-22
68,25,-24
78,21,-25
85,23,-27
88,24,-34
94,19,-38
96,15,-39
102,14,-39
103,0,-39
110,5,-46
116,-6,-46
115,13,-53
118,11,-59
113,23,-59
117,18,-58
109,21,-56
107,21,-51
97,24,-46
100,29,-47
97,31,-41
100,24,-37
105,17,-31
111,3,-26
119,-4,-19
126,-18,-20
129,-26,-14
136,-36,-9
138,-41,-9
142,-45,-14
139,-39,-14
138,-44,-16
136,-37,-20
131,-35,-20
123,-39,-20
117,-33,-19
103,-35,-15
91,-33,-9
81,-29,-9
66,-24,-6
51,-21,0
40,-19,2
31,-14,7
22,-12,12
13,-15,16
6,-10,19
5,-18,21
7,-15,27
1,-9,23
3,-13,27
4,-17,28
8,-16,24
8,-15,20
14,-20,22
14,-15,16
18,-18,15
19,-13,14
26,-16,15
23,-10,14
31,-9,14
30,-7,9
32,-6,10
36,-5,7
38,0,1
38,2,3
41,2,-3
37,2,-4
37,2,-5
33,1,-2
34,2,1
25,3,0
21,5,1
20,5,4
14,6,3
15,9,9
9,10,11
9,7,14
8,5,17
5,0,21
5,-2,17
6,-2,17
4,-9,18
3,-12,11
1,-17,14
0,-17,14
1,-18,11
0,-19,8
0,-22,10
0,-23,4
0,-24,7
-1,-22,4
-1,-24,4
-4,-21,6
-8,-20,6
-11,-17,8
-15,-21,10
-14,-20,9
-16,-16,9
-17,-13,6
-17,-13,4
-14,-13,4
-15,-11,3
-10,-11,5
-7,-11,0
-2,-11,-4
-2,-11,-3
3,-10,-5
3,-8,-4
6,-10,-3
5,-10,-1
4,-5,3
5,-3,1
4,0,3
4,3,2
12,6,-2
20,5,-1
24,7,-7
37,8,-6
42,5,-10
46,-2,-7
50,-6,-5
52,-17,-2
50,-21,1
51,-27,0
49,-29,4
44,-29,2
38,-28,0
29,-25,-1
24,-19,-4
15,-20,-10
9,-16,-10
1,-15,-11
-6,-11,-13
-12,-9,-19
-24,-6,-19
-27,-9,-17
-34,-8,-16
-40,-9,-12
-44,-12,-8
-47,-8,-9
-50,-8,-7
-49,-7,-3
-51,-10,2
-52,-12,4
-52,-13,7
-48,-12,7
-46,-18,12
-42,-17,9
-41,-16,9
-42,-14,10
-38,-13,12
-39,-10,11
-36,-10,12
-29,-8,12
-26,-4,11
-17,-4,11
-10,-3,12
-9,-2,13
0,-6,12
4,-8,14
8,-11,13
13,-13,13
14,-16,13
13,-15,15
16,-16,14
9,-18,12
5,-14,12
1,-14,11
-5,-12,10
-8,-10,7
-12,-8,6
-13,-7,7
-15,-4,3
-20,-1,3
-19,-1,4
-18,-2,3
-19,-1,0
-17,0,-1
-17,-2,0
-18,0,-4
-12,2,-5
-12,3,-6
-12,2,-8
-13,3,-13
-17,0,-9
-16,0,-13
-18,-2,-12
-20,-1,-14
-27,0,-12
-28,-2,-13
-28,0,-9
-32,0,-10
-33,0,-13
-31,-3,-7
-32,-2,-8
-30,-1,-7
-28,-1,-5
-29,2,-6
-26,0,-5
-23,1,-4
-22,-3,-1
-19,-6,1
-15,-9,0
-14,-10,1
-10,-12,0
-4,-11,0
-3,-9,-2
0,-7,-1
7,-6,-2
14,-7,-4
22,-3,-5
26,-4,-6
25,2,-7
21,1,-4
16,0,-1
15,0,0
12,0,2
9,-1,4
5,1,6
6,7,5
8,15,5
16,18,1
25,20,1
30,21,-1
40,20,1
47,16,1
53,16,0
59,7,0
56,6,0
53,0,3
46,-1,3
38,-5,6
29,-9,2
21,-8,2
5,-6,4
-1,-9,3
-13,-5,-1
-22,-5,0
-28,-5,-3
-33,-9,-4
-35,-10,-9
-32,-13,-9
-36,-12,-10
-35,-10,-11
-30,-12,-13
-29,-11,-12
-26,-10,-7
-25,-7,-7
-22,-8,-5
-27,-6,0
-28,-3,0
-29,-5,0
-30,-8,6
-31,-8,3
-33,-11,4
-35,-12,4
-36,-17,5
-36,-17,4
-32,-16,4
-30,-19,3
-28,-17,-1
-19,-16,-4
-9,-17,-4
-3,-17,-6
1,-16,-8
7,-17,-10
10,-18,-10
14,-17,-14
15,-21,-14
16,-19,-16
16,-16,-15
14,-16,-15
14,-14,-16
9,-12,-16
9,-12,-15
6,-11,-13
2,-9,-13
0,-9,-6
0,-6,-10
-3,-8,-4
-7,-2,-5
-7,-1,-2
-8,0,-2
-8,3,-4
-5,1,-5
-4,3,-5
-2,0,-4
-4,0,-9
-1,-1,-7
4,-4,-6
3,-3,-7
3,-5,-8
10,-7,-8
9,-7,-11
11,-7,-14
12,-9,-17
8,-10,-16
6,-10,-16
6,-10,-18
3,-13,-17
2,-11,-17
-2,-12,-13
-4,-14,-15
-6,-15,-13
-10,-15,-11
-11,-12,-8
-14,-14,-7
-16,-15,0
-17,-13,-1
-18,-11,0
-20,-11,1
-21,-11,5
-20,-10,1
-18,-11,6
-18,-9,6
-16,-9,9
-15,-7,6
-19,-9,12
-18,-7,11
-17,-5,11
-13,-3,9
-13,-6,7
-9,-4,9
-7,0,9
-3,0,7
0,-1,8
5,0,7
10,-2,6
15,0,5
20,0,4
19,5,3
18,4,4
14,6,10
7,6,10
-2,7,20
-11,10,24
-16,12,30
-17,13,32
-9,18,30
3,19,28
9,21,24
21,19,26
29,16,24
33,14,22
38,9,23
33,3,22
31,2,17
24,0,15
15,-5,15
2,-6,16
-3,-8,11
-14,-9,13
-23,-7,10
-33,-3,12
-36,2,11
-42,7,11
-43,11,13
-43,14,14
-41,17,14
-42,21,15
-35,19,16
-33,16,17
-24,16,21
-17,11,16
-9,8,19
-6,3,21
0,-2,22
0,-5,20
0,-8,20
-2,-6,23
-4,-8,20
-4,-12,19
-11,-11,17
-14,-10,17
-17,-11,17
-15,-12,16
-11,-10,18
-10,-5,19
-2,-6,18
2,-2,20
11,1,16
14,0,15
20,0,11
27,-1,8
29,-2,6
28,0,3
27,2,0
30,-2,-3
25,0,-3
19,0,-4
14,-1,-6
10,-1,-8
4,0,-12
0,-2,-13
-5,-1,-13
-6,2,-11
-10,1,-11
-9,4,-10
-9,6,-12
-12,11,-13
-10,9,-14
-6,9,-12
-7,9,-11
0,3,-6
1,3,-6
5,4,-6
5,4,-8
7,1,-7
9,0,-6
12,-2,-6
10,-2,-6
8,0,-8
7,-3,-2
8,-3,-4
3,-2,-5
4,-3,-2
1,1,-3
0,0,-2
0,0,-3
-2,2,-3
-1,3,0
-8,4,0
-8,3,0
-8,0,0
-11,0,4
-8,1,2
-9,0,5
-5,0,3
-5,-2,4
0,-1,4
3,-1,6
6,0,8
8,0,7
11,0,6
18,2,0
19,5,0
17,6,0
13,8,0
11,9,3
5,8,7
-2,10,16
-10,9,20
-11,8,22
-7,15,17
1,15,13
11,14,8
21,12,6
26,11,5
28,8,4
29,6,2
27,0,2
24,-3,3
16,-6,-1
9,-11,0
0,-10,-1
-9,-13,0
-14,-14,-2
-19,-10,-4
-23,-7,-7
-24,-7,-7
-25,-5,-5
-27,-3,-3
-29,-1,0
-29,-3,3
-31,0,4
-29,1,5
-26,0,9
-26,1,9
-23,1,13
-22,0,10
-17,1,10
-13,-1,12
-14,-1,11
-13,-5,8
-16,-5,5
-21,-8,5
-20,-11,3
-25,-14,6
-28,-14,4
-33,-15,-3
-33,-21,0
-34,-19,-2
-30,-20,-3
-27,-17,-6
-21,-13,-9
-15,-12,-8
-8,-7,-6
-7,-2,-11
-3,0,-9
2,1,-6
4,0,-5
2,-1,-3
2,-9,-2
2,-13,3
1,-21,4
3,-23,7
3,-26,7
6,-31,7
5,-31,8
6,-27,6
6,-26,10
5,-21,7
6,-20,6
10,-18,6
6,-14,4
9,-15,5
10,-14,3
12,-13,3
13,-14,5
13,-13,8
13,-15,7
16,-21,9
14,-20,13
16,-20,16
17,-19,19
16,-21,23
18,-16,24
18,-15,29
17,-7,31
19,-1,36
13,7,35
17,18,36
18,23,37
16,34,33
23,41,27
25,51,23
23,57,20
23,59,15
21,57,15
22,60,12
22,54,9
20,49,4
15,47,5
11,41,8
3,33,7
-4,25,7
-13,19,11
-21,10,13
-24,2,15
-27,2,15
-29,2,11
-20,4,9
-12,1,6
-4,7,5
5,6,4
15,7,-2
20,8,-3
25,8,-5
27,8,-7
26,13,-7
20,13,-8
14,15,-7
8,19,-10
-1,24,-12
-9,29,-12
-21,32,-10
-31,37,-6
-42,37,-4
-50,38,-7
-55,41,-5
-62,39,-6
-62,38,-7
-60,34,-5
-56,30,-9
-53,25,-7
-44,17,-7
-38,12,-8
-33,3,-6
-28,0,-12
-23,-6,-10
-21,-12,-9
-20,-14,-13
-18,-17,-12
-20,-19,-14
-29,-18,-12
-31,-20,-12
-34,-22,-8
-37,-22,-3
-46,-20,-3
-46,-18,-2
-45,-13,-3
-44,-13,1
-42,-7,4
-36,-1,6
-24,-1,8
-16,2,8
-10,5,10
-4,4,9
2,7,12
7,8,7
11,5,5
14,1,7
12,0,0
14,-5,-4
12,-10,-7
9,-11,-12
7,-15,-19
0,-19,-19
-3,-18,-23
-7,-24,-25
-6,-26,-28
-12,-25,-28
-15,-28,-27
-20,-25,-32
-24,-23,-31
-29,-21,-29
-36,-21,-28
-39,-22,-25
-45,-27,-25
-51,-27,-23
-58,-30,-21
-60,-30,-21
-65,-33,-18
-67,-38,-15
-68,-40,-15
-66,-38,-16
-64,-37,-19
-61,-34,-17
-59,-29,-19
-53,-23,-22
-48,-17,-24
-43,-7,-25
-36,0,-28
-30,10,-28
-19,21,-33
-9,29,-36
5,39,-40
16,46,-39
32,45,-42
53,45,-42
65,42,-39
83,42,-29
93,36,-27
108,32,-27
123,30,-27
130,24,-22
141,29,-24
150,30,-26
160,31,-25
166,38,-26
172,46,-31
173,52,-27
175,59,-30
169,65,-33
169,70,-36
160,74,-38
155,68,-34
144,67,-35
138,60,-29
131,57,-27
123,44,-25
119,36,-22
113,24,-19
107,12,-13
101,3,-11
96,-5,-11
88,-8,-11
82,-14,-12
80,-13,-15
73,-9,-17
62,-7,-17
52,-2,-18
38,2,-20
25,3,-21
12,7,-14
-4,9,-10
-27,13,-10
-43,15,0
-62,14,3
-82,17,12
-98,16,21
-113,14,27
-130,11,36
-141,6,40
-148,-3,45
-155,-7,47
-160,-15,52
-159,-17,55
-158,-18,56
-151,-20,60
-141,-21,60
-131,-20,61
-115,-18,59
-101,-17,61
-88,-14,64
-69,-11,58
-58,-5,58
-43,-1,59
-30,0,55
-15,1,57
0,4,54
10,7,56
20,5,56
31,5,56
34,3,58
41,1,59
45,-2,60
47,-6,61
47,-10,64
47,-8,61
50,-15,60
51,-23,55
54,-23,52
52,-31,47
51,-33,41
52,-38,37
50,-46,33
47,-48,30
40,-49,23
35,-49,19
28,-46,15
26,-44,8
14,-41,6
5,-39,2
-4,-42,3
-11,-41,-1
-18,-39,-1
-28,-35,-5
-36,-37,-7
-38,-35,-9
-44,-35,-10
-49,-36,-13
-53,-38,-15
-58,-36,-15
-60,-41,-17
-57,-46,-16
-58,-50,-13
-56,-44,-11
-52,-45,-12
-46,-43,-12
-38,-43,-13
-33,-38,-18
-22,-29,-15
-10,-22,-19
-3,-15,-21
1,-10,-21
-2,-2,-16
-1,3,-15
1,6,-13
-2,9,-10
-8,13,1
-16,17,6
-16,22,8
-14,30,8
-6,30,0
7,27,-6
14,26,-20
23,17,-29
29,10,-42
32,-2,-51
27,-12,-59
23,-19,-64
14,-24,-72
2,-29,-71
-11,-29,-75
-22,-30,-75
-34,-33,-72
-48,-32,-73
-57,-33,-77
-65,-31,-81
-75,-30,-81
-83,-29,-83
-90,-30,-78
-97,-32,-69
-102,-55,-64
-106,-66,-55
-112,-70,-41
-107,-62,-31
-104,-51,-27
-100,-34,-25
-98,-6,-25
-88,4,-22
-78,34,-23
-68,50,-16
-57,63,-12
-51,74,-11
-42,76,-4
-31,84,-6
-22,76,-4
-19,74,-11
-16,61,-11
-13,58,-15
-15,43,-19
-13,39,-17
-13,35,-14
-13,25,-10
-10,27,-9
-7,17,-1
-4,17,6
0,3,15
2,6,22
6,-8,36
9,-9,38
15,-15,43
18,-20,43
20,-12,44
23,-10,42
21,-8,40
19,-8,40
18,-9,37
16,-19,39
12,-21,35
8,-27,35
7,-33,28
5,-41,25
0,-44,18
5,-52,17
-3,-49,11
-5,-49,9
-7,-50,6
-9,-55,7
-8,-63,7
-7,-69,1
-4,-74,1
0,-76,-3
-3,-78,-4
0,-77,-7
-2,-76,-6
-5,-71,-8
-4,-69,-10
-1,-66,-8
-1,-63,-10
-2,-64,-13
-4,-63,-13
-2,-62,-9
1,-54,-12
3,-52,-10
4,-44,-12
5,-41,-14
5,-41,-16
5,-38,-11
7,-36,-8
6,-29,-5
5,-24,-5
5,-16,2
6,-7,5
10,-4,13
9,-7,22
13,-8,30
21,-14,32
23,-19,35
24,-19,36
25,-20,34
29,-9,34
31,0,32
29,14,26
30,22,23
27,27,25
26,35,21
28,35,21
31,31,17
41,27,12
47,18,6
51,9,6
56,-2,0
59,-13,3
55,-27,4
56,-32,8
54,-36,5
52,-35,6
48,-33,2
44,-26,1
39,-20,-7
29,-16,-11
18,-8,-12
9,-3,-10
-2,7,-8
-11,14,-9
-20,17,-9
-26,22,-5
-34,24,-2
-43,22,0
-42,23,-1
-42,21,4
-45,25,1
-46,25,1
-45,31,0
-41,30,-3
-40,30,-10
-38,37,-14
-37,39,-10
-39,43,-10
-39,46,-7
-42,49,-6
-39,52,-8
-39,54,-7
-38,56,-11
-35,58,-6
-38,54,-3
-36,55,0
-32,53,2
-28,56,3
-26,56,5
-22,57,5
-18,59,7
-14,60,13
-6,63,16
-4,65,23
1,66,29
2,69,32
5,69,34
8,68,38
9,67,42
8,68,39
9,62,38
9,59,40
8,56,39
5,47,36
3,42,41
8,34,36
7,25,33
8,19,32
12,6,33
17,0,34
20,-9,32
27,-14,28
31,-21,26
36,-29,23
36,-35,25
39,-41,24
41,-48,22
44,-49,18
44,-52,17
48,-52,17
49,-50,15
47,-47,14
46,-43,10
49,-39,9
49,-40,9
49,-41,11
49,-40,8
45,-34,6
44,-33,5
42,-31,4
41,-32,3
41,-29,2
39,-32,-2
38,-34,-4
36,-38,-7
38,-36,-6
34,-35,-11
31,-36,-13
29,-31,-14
23,-29,-16
24,-28,-18
21,-24,-20
21,-23,-21
23,-24,-22
21,-21,-22
12,-17,-14
3,-15,-15
-3,-13,-9
-12,-11,-14
-20,-13,-7
-25,-8,-10
-34,-7,-10
-33,-5,-13
-33,-4,-14
-27,-6,-16
-16,-10,-21
-10,-6,-19
-6,-9,-22
0,-11,-21
6,-11,-20
7,-13,-19
8,-14,-17
8,-17,-11
6,-16,-8
7,-20,-4
4,-20,1
-1,-21,3
-3,-17,5
-10,-17,8
-18,-14,7
-23,-15,8
-28,-13,9
-34,-13,14
-37,-15,12
-37,-15,17
-39,-12,10
-37,-13,10
-32,-12,11
-30,-11,8
-25,-10,6
-20,-8,8
-17,-4,6
-11,0,5
-6,4,8
-5,6,11
1,5,12
4,4,15
6,3,12
9,-1,14
11,-4,17
13,-6,17
13,-6,15
14,-9,10
14,-8,8
21,-4,5
22,-1,0
26,1,-3
27,2,-8
30,3,-11
32,6,-18
30,4,-17
34,0,-21
32,3,-25
32,0,-26
28,-3,-28
25,-12,-32
19,-17,-26
13,-23,-25
8,-29,-22
1,-32,-17
-4,-27,-15
-10,-24,-7
-13,-14,-10
-19,-12,-6
-20,-5,-6
-23,0,-8
-23,-6,-8
-23,-6,-8
-23,-6,-8
-17,-1,-9
-17,2,-12
-18,3,-13
-15,7,-12
-15,5,-12
-11,3,-10
-12,0,-7
-11,0,-7
-8,-1,-4
-7,2,-6
-2,0,-1
-3,0,0
-3,1,0
-3,0,7
0,0,10
1,-2,13
4,1,12
4,-3,16
9,-9,17
6,-15,12
10,-17,15
11,-13,13
12,-13,12
12,-10,14
12,-17,12
14,-21,11
14,-26,8
11,-29,8
10,-32,8
9,-33,6
9,-33,6
11,-32,2
14,-27,-1
10,-26,-2
4,-20,0
-7,-13,-3
-12,-8,-4
-20,-1,-2
-28,2,2
-37,12,6
-36,10,10
-34,11,11
-25,5,14
-12,-1,19
-1,-2,19
16,-4,17
31,-3,14
39,-3,10
44,-11,7
45,-13,1
48,-18,-1
41,-23,-1
33,-27,0
24,-34,1
13,-31,3
0,-28,2
-8,-30,1
-18,-30,4
-24,-30,2
-32,-32,-1
-39,-32,-2
-41,-29,-7
-41,-25,-8
-46,-22,-9
-46,-12,-6
-39,-2,-3
-36,2,0
-31,7,3
-20,0,7
-18,4,9
-15,0,12
-10,4,16
-10,0,20
-6,7,24
-8,10,30
-8,12,32
-8,11,30
-8,6,32
-8,4,29
-5,5,32
-4,6,25
4,10,20
8,12,15
15,10,7
23,8,5
28,9,1
34,13,0
35,22,-1
37,27,-7
39,29,-4
41,30,-3
34,34,-4
32,38,0
29,41,5
23,46,4
18,50,9
15,52,8
9,57,11
5,65,12
1,75,11
-2,78,16
-3,79,20
-5,84,22
-5,79,23
-4,75,26
-7,71,23
-4,60,27
-1,54,25
-2,51,19
0,49,16
0,50,14
4,46,1
1,26,-5
4,17,-13
2,13,-9
-3,11,-9
-4,20,-3
-5,27,0
-8,36,-1
-9,42,2
-7,52,0
-8,60,1
-5,66,2
0,66,1
-3,65,-4
-2,64,-5
-5,64,-4
-7,53,2
-10,52,10
-7,45,16
-9,43,20
-5,33,28
-2,20,32
0,9,38
3,2,41
10,-3,40
16,2,37
22,1,30
27,7,20
29,8,21
27,11,17
26,14,18
23,19,16
18,22,14
8,31,20
1,36,21
-1,38,22
-3,46,24
3,48,21
9,49,20
18,47,21
28,46,22
35,29,14
42,19,14
46,6,12
52,-9,15
51,-24,12
47,-25,9
38,-24,7
34,-24,10
25,-23,8
13,-22,1
5,-21,5
-2,-18,2
-10,-18,1
-18,-16,-4
-26,-12,-7
-30,-4,-7
-31,2,-8
-34,13,-10
-35,36,-9
-33,58,-6
-29,67,-6
-28,71,-5
-24,75,-5
-18,75,0
-15,74,2
-12,64,9
-8,65,5
-9,59,1
-7,62,4
-9,62,7
-7,65,13
-5,60,16
-7,57,18
0,55,20
3,54,18
10,48,15
18,42,11
27,37,10
34,32,4
36,30,1
39,27,-6
37,26,-7
35,29,-8
33,24,-11
33,23,-13
28,23,-15
26,17,-12
18,18,-12
11,17,-14
8,18,-12
5,17,-9
-4,20,-6
-5,16,-5
-7,17,-6
-10,12,-3
-14,13,-6
-16,9,-6
-15,6,-3
-14,3,-4
-10,-3,-3
-11,-6,-4
-11,-14,-9
-12,-21,-11
-12,-27,-14
-11,-30,-17
-11,-34,-14
-14,-38,-14
-16,-39,-13
-13,-34,-13
-13,-36,-13
-16,-34,-13
-14,-51,-11
-20,-23,-11
-23,-28,-11
-22,-33,-13
-30,-32,-17
-34,-33,-12
-38,-43,-12
-40,-59,-11
-43,-73,-12
-43,-88,-13
-41,-103,-12
-45,-117,-18
-43,-125,-17
-44,-127,-22
-41,-119,-29
-41,-102,-28
-37,-83,-37
-31,-68,-37
-33,-55,-39
-32,-31,-38
-31,-15,-36
-20,-4,-35
-23,9,-28
-23,20,-19
-19,31,-11
-11,39,-4
2,48,0
16,54,3
34,60,6
45,59,3
55,52,10
62,53,13
62,55,16
64,52,18
58,47,19
47,46,20
40,44,20
28,43,23
19,37,18
8,36,17
0,37,13
-11,36,6
-21,38,0
-31,39,0
-34,42,-4
-42,42,-8
-46,44,-14
-47,44,-15
-47,54,-17
-45,45,-13
-41,43,-12
-35,36,-9
-34,44,-6
-24,42,0
-18,35,4
-12,30,7
-10,24,13
-8,27,15
-9,30,18
-5,30,22
-3,30,26
0,29,31
-2,29,33
0,23,39
0,18,41
-1,107,43
4,84,46
15,47,48
28,37,46
34,38,36
40,31,29
43,24,23
49,13,21
49,9,22
54,6,22
55,-1,23
60,-10,26
61,-14,22
63,-13,18
63,-16,16
64,-15,14
64,-16,14
59,-16,12
60,-23,12
55,-24,11
54,-23,7
52,-19,4
52,-15,2
51,-16,4
46,-11,2
46,-14,2
45,-14,-1
41,-18,-3
41,-17,0
40,-19,0
34,-23,-2
31,-22,-1
30,-25,-2
26,-29,-2
25,-29,5
24,-31,4
22,-28,4
16,-25,8
19,-23,9
16,-15,11
16,-9,9
14,-6,5
17,-5,7
15,-3,8
12,-3,8
16,-6,4
14,-8,3
17,-16,0
14,-21,-2
15,-25,-3
13,-26,-5
9,-29,-5
6,-25,-2
2,-28,1
-2,-24,0
-10,-23,0
-18,-17,1
-25,-14,4
-27,-8,3
-27,-5,4
-22,-1,1
-14,3,3
-6,5,2
2,4,2
9,3,1
19,0,3
21,-3,3
25,-7,4
31,-14,2
28,-21,2
24,-27,0
21,-32,0
15,-34,-2
10,-36,-6
2,-32,-6
-3,-31,-5
-14,-29,-5
-19,-29,-5
-24,-26,-9
-29,-22,-4
-29,-22,0
-30,-17,-5
-31,-16,-8
-33,-14,-9
-28,-16,-7
-27,-11,-8
-24,-9,-6
-20,-12,-7
-19,-10,-7
-18,-7,-8
-14,-11,-5
-15,-12,-2
-14,-8,-1
-10,-12,5
-10,-9,4
-9,-10,8
-12,-9,6
-10,-8,10
-9,-9,10
-6,-4,12
-4,-3,7
0,-3,5
6,-2,5
9,-2,2
11,-3,0
16,-2,-3
19,-2,-3
19,-1,-5
22,1,-6
25,-2,-8
25,-1,-5
26,0,-6
27,-2,-6
24,-3,-7
19,-3,-9
17,-6,-2
12,-7,-5
10,-5,-3
8,-10,-2
4,-7,-1
1,-7,-1
0,-8,-1
-3,-7,1
-5,-6,-5
-4,-10,-3
-8,-9,-4
-6,-6,-5
-6,-5,-6
-9,-6,-9
-7,-10,-12
-7,-10,-13
-9,-11,-10
-9,-14,-8
-8,-14,-8
-11,-18,-9
-10,-18,-8
-11,-20,-6
-12,-23,-5
-10,-19,-3
-11,-18,0
-13,-17,2
-12,-16,3
-9,-15,0
-6,-18,-1
0,-15,0
-1,-14,-4
0,-10,0
-6,-7,0
-8,-5,0
-11,0,0
-14,0,2
-17,3,1
-17,6,2
-17,15,1
-13,15,1
-2,15,0
6,12,2
16,16,3
25,13,1
34,9,1
41,5,3
43,-1,1
47,-9,2
45,-12,5
40,-17,3
37,-21,6
26,-24,6
21,-29,6
9,-28,7
1,-27,3
-3,-18,3
-10,-20,0
-16,-19,0
-18,-15,0
-21,-14,-3
-22,-15,-2
-24,-9,-1
-26,-6,-5
-24,-7,-5
-21,-7,-5
-17,-5,-6
-17,-1,-4
-15,-1,-4
-14,-3,-1
-16,-2,0
-17,-2,0
-18,-3,1
-18,-2,6
-19,-1,6
-22,5,8
-21,11,7
-21,12,4
-17,16,0
-14,19,0
-9,19,-1
-5,23,-4
-1,22,-5
5,20,-3
9,20,-3
14,20,-3
17,18,-3
23,12,-2
24,13,-1
23,7,-2
24,1,-3
22,0,0
19,-5,0
15,-6,0
7,-7,1
3,-6,-2
2,-5,-2
0,-5,-1
0,-6,0
-3,-2,-3
-2,-1,-3
-4,-1,-5
-5,-2,-1
0,0,-6
-3,-3,-3
-2,0,-5
1,0,-4
2,-2,-5
0,1,-5
3,-2,-4
3,-1,-3
2,-4,0
2,-1,0
3,-2,1
4,-5,1
3,-7,1
3,-8,1
6,-9,0
3,-11,4
3,-10,0
3,-8,0
1,-6,0
2,-4,-3
6,-2,2
8,3,-1
8,4,-3
8,7,0
0,10,1
-3,11,4
-9,12,2
-11,12,8
-16,16,7
-20,18,8
-19,24,6
-16,25,1
-6,23,2
6,19,-4
17,14,-4
26,8,-5
32,0,-2
36,-4,-4
40,-10,0
38,-12,-1
38,-18,2
32,-20,5
27,-24,11
17,-19,8
8,-19,8
1,-15,10
-7,-15,9
-12,-12,8
-20,-8,7
-21,-7,9
-25,-8,4
-25,-6,0
-25,-5,-1
-24,-4,-4
-19,-5,-3
-16,-4,-8
-14,-6,-8
-13,-3,-5
-8,-4,-6
-8,-2,-6
-8,-2,-4
-8,0,0
-10,-1,3
-8,0,10
-11,-2,9
-13,-3,11
-13,0,12
-13,-1,13
-14,0,12
-12,3,12
-4,1,9
0,1,7
7,1,5
12,1,5
16,2,1
24,1,2
27,0,3
31,0,-1
37,-4,1
37,-1,0
37,-4,-1
33,-1,-1
32,-5,-1
27,-4,-1
24,-3,2
20,0,1
14,0,-1
13,1,0
7,0,-3
3,1,-8
1,0,-5
-1,-4,-4
-4,-2,-6
-5,-5,-6
-7,-2,-6
-7,-6,-7
-8,-2,-8
-6,0,-4
-8,-1,-7
-3,-1,-6
-3,0,-5
-2,1,-3
-3,0,-2
-3,-1,-6
-2,-2,-3
0,-3,-2
3,-4,-2
2,-5,-4
3,-6,-2
2,-5,-1
3,-8,0
5,-11,-2
2,-10,-1
2,-14,-2
0,-13,0
0,-11,-3
1,-15,3
-1,-15,0
2,-13,1
6,-14,2
10,-12,0
11,-9,0
7,-10,1
1,-11,5
-4,-12,4
-7,-8,4
-11,-5,9
-17,4,10
-18,6,10
-11,11,10
-5,16,7
8,13,6
17,13,4
27,9,3
37,3,5
45,-1,9
50,-11,6
50,-17,8
50,-20,8
44,-24,9
34,-24,9
27,-27,5
15,-23,7
4,-21,4
-3,-19,4
-13,-15,3
-21,-13,4
-26,-9,2
-31,-7,-2
-33,-3,-1
-35,1,-6
-34,2,-5
-32,6,-6
-24,2,-5
-23,4,-12
-19,-2,-4
-15,-2,-7
-10,-5,-6
-9,-8,-4
-11,-6,-1
-7,-10,3
-11,-10,6
-11,-12,8
-10,-12,12
-11,-13,14
-10,-12,12
-10,-12,14
-10,-11,9
-4,-11,9
0,-9,6
5,-9,7
8,-6,0
14,-7,-2
19,-3,-3
19,-1,-4
23,-3,-5
22,1,-6
24,-1,-8
24,0,-6
20,0,-4
16,-3,-6
11,0,-6
8,-4,-6
3,-2,-5
1,-2,-3
0,-2,-3
-2,-1,-5
-5,-1,-1
-8,-1,-5
-5,-2,-4
-8,-3,-2
-5,-6,-3
-1,-5,-2
-3,-7,-5
0,-5,-5
1,-5,-6
2,-7,-2
2,-6,-8
4,-7,-6
5,-6,-8
5,-7,-4
4,-3,-6
3,-5,-5
9,-6,0
7,-8,-2
8,-8,0
10,-7,4
11,-10,5
15,-9,7
17,-8,6
14,-8,7
13,-7,3
10,-10,5
10,-9,2
9,-9,3
5,-8,3
7,-9,3
4,-11,1
2,-12,4
3,-12,3
2,-13,3
3,-10,4
7,-12,2
13,-8,0
18,-9,0
19,-6,2
14,-4,1
13,0,3
9,-1,5
2,2,8
-1,3,11
-8,3,17
-9,11,14
-4,9,13
6,13,13
17,10,11
29,8,10
37,5,9
47,2,12
51,-2,8
51,-9,9
52,-13,6
44,-17,7
40,-16,3
32,-20,3
19,-18,0
11,-15,-2
3,-9,0
-7,-7,-1
-14,-5,0
-20,0,-3
-28,0,0
-30,4,0
-32,5,4
-32,4,4
-30,6,6
-28,5,10
-22,2,10
-15,-2,10
-9,-1,13
-3,-7,13
1,-10,15
5,-11,11
7,-13,14
8,-17,14
9,-15,14
8,-18,13
5,-18,13
3,-17,14
0,-11,12
1,-6,13
3,-4,10
5,-3,8
11,-2,8
15,0,6
16,2,4
20,2,6
22,3,3
25,6,0
28,0,2
28,3,1
26,0,1
23,0,3
27,0,0
20,-1,0
16,0,-1
11,4,0
7,3,0
2,3,-3
-3,5,-2
-3,3,-1
-6,0,-1
-6,1,0
-7,1,-2
-7,0,-2
-5,1,-3
-5,2,-1
-2,4,-1
0,3,-4
1,2,-2
2,2,-3
2,-2,-3
8,-7,0
7,-8,-2
10,-8,-1
7,-5,0
9,-6,1
10,-6,0
11,-5,0
9,-4,-2
3,-3,0
2,-4,0
1,-4,2
3,-4,0
-2,-5,3
-3,-3,3
-4,-3,5
-3,-3,4
2,-3,7
3,-1,6
5,1,4
8,-2,2
9,-4,1
10,-3,0
15,-5,0
20,-8,2
25,-5,-1
21,-3,1
18,0,1
15,0,4
13,2,3
8,5,8
3,7,12
-5,10,16
-5,12,18
-2,16,13
4,15,11
13,13,11
24,13,11
30,7,10
37,3,8
39,-5,5
43,-5,4
40,-5,2
34,-9,2
31,-13,1
26,-10,-2
14,-11,-4
9,-12,-4
1,-9,-3
-7,-4,-4
-16,-2,-3
-20,-2,-3
-28,1,-2
-30,4,2
-35,6,3
-33,6,7
-32,5,10
-26,7,10
-24,7,9
-18,7,14
-15,2,11
-5,-2,12
0,-8,10
5,-10,9
5,-14,8
5,-18,7
7,-19,8
6,-20,6
5,-19,6
3,-19,8
4,-18,9
1,-15,6
3,-15,5
7,-10,3
12,-7,5
15,-3,0
21,-3,0
21,-1,1
25,1,0
27,1,0
25,3,2
24,0,2
21,0,0
21,1,-1
15,0,0
13,1,0
10,2,-5
4,4,-4
3,5,-5
2,5,-5
0,5,-5
-3,4,-4
-3,4,-5
-4,4,-4
-5,2,-4
-3,6,-8
0,1,-7
-3,2,-6
0,-2,-4
4,-1,-4
3,-5,-3
2,-4,-3
5,-6,-4
6,-7,-2
5,-10,0
7,-6,0
6,-5,0
6,-4,-1
5,-4,0
3,-6,1
3,-5,0
0,-5,-1
-1,-4,0
-3,-5,2
-3,-5,1
-4,-7,1
-4,-8,-2
-7,-3,-2
-5,-5,-2
-4,-4,3
-1,-3,-2
2,0,-1
1,-2,1
4,-4,0
6,-2,-1
9,-4,-3
14,-3,-4
11,-3,0
6,-2,-2
3,0,0
0,0,1
-5,5,8
-13,7,10
-17,11,12
-17,18,11
-8,16,8
0,18,3
10,15,3
21,13,0
28,7,0
33,3,0
40,0,-5
36,-6,-4
39,-9,-4
33,-11,-5
29,-11,-4
22,-11,-5
12,-11,-7
2,-11,-6
-2,-8,-9
-17,-8,-6
-25,-2,-7
-32,0,-8
-38,-1,-3
-45,-1,-4
-47,3,1
-48,2,2
-43,2,6
-43,3,5
-39,1,2
-32,-1,6
-23,-3,5
-15,-5,5
-8,-11,2
-2,-12,2
5,-13,2
5,-15,6
5,-14,6
4,-15,8
3,-15,7
0,-14,10
-4,-13,7
-7,-11,8
-5,-9,5
-2,-4,1
-2,0,-1
4,0,-1
9,1,-6
8,6,-12
16,5,-12
16,3,-13
14,4,-18
18,4,-19
17,0,-18
16,0,-18
11,1,-17
9,-2,-12
3,0,-13
-1,0,-14
-6,-1,-10
-8,-1,-9
-12,-2,-10
-15,0,-10
-13,0,-7
-14,-1,-10
-14,-3,-9
-11,-4,-4
-7,-5,-5
-2,-6,-4
1,-6,-6
6,-8,-5
10,-8,-8
12,-10,-8
14,-9,-5
13,-10,-3
13,-15,-4
12,-12,-3
12,-12,-3
10,-13,0
8,-10,-6
8,-6,-3
6,-6,-3
2,-3,-1
0,-3,-3
-5,0,-5
-4,-1,-1
-8,5,-3
-10,2,-4
-10,0,-2
-10,1,-2
-11,0,-2
-6,0,-1
-4,1,-5
-6,0,-4
-2,-1,-6
0,0,-6
0,1,-5
3,-1,-6
5,-3,-4
10,0,-4
13,0,-4
11,0,-4
8,0,0
6,0,0
2,0,0
0,0,0
-9,10,2
-14,11,7
-18,14,8
-17,15,7
-11,18,7
-4,17,5
8,17,6
16,12,6
23,9,6
31,3,7
37,0,3
38,-3,7
42,-9,6
37,-8,4
33,-10,1
29,-13,-1
20,-11,-6
16,-13,-4
7,-12,-8
0,-8,-7
-2,-4,-8
-12,-1,-6
-15,-1,-5
-20,-1,-3
-23,3,-5
-26,4,-3
-22,0,0
-28,0,0
-25,0,3
-23,0,5
-23,-2,3
-19,-2,6
-14,-6,8
-10,-3,8
-9,-5,11
-6,-7,11
-7,-6,9
-2,-7,7
-1,-10,9
-4,-11,6
-1,-9,8
1,-9,9
0,-7,6
2,-5,3
7,-1,5
10,-2,3
16,0,1
17,1,0
18,0,-4
25,4,-1
24,4,-5
28,3,-4
23,0,-6
23,4,-4
22,4,-9
21,5,-7
17,4,-7
14,3,-6
7,0,-4
6,1,-2
5,-1,-3
-1,-1,0
-4,1,-3
-8,-1,-1
-6,-1,-6
-7,0,-3
-8,0,-2
-8,1,-5
-6,2,-1
-5,1,-2
-4,1,-5
-5,0,-3
-5,2,-4
-2,0,-1
-3,0,-1
0,-1,-3
0,-3,0
1,-5,0
1,-6,0
2,-3,-2
4,-4,-1
1,-8,0
2,-5,4
2,-5,4
0,-5,2
0,-7,1
0,-4,5
1,-4,3
1,-3,3
0,-1,1
0,0,3
1,0,2
0,0,2
0,3,2
0,2,4
5,1,4
3,0,7
3,-2,5
6,-1,5
6,-1,3
7,0,5
9,0,4
6,0,3
4,0,3
4,1,5
8,-2,5
6,-1,0
6,0,2
7,-2,0
7,1,0
9,0,-1
12,0,-2
12,3,-1
8,4,0
7,4,1
-1,5,4
-1,1,3
-8,3,5
-12,6,11
-19,8,11
-18,11,11
-13,13,12
-5,13,9
3,12,8
15,12,8
24,11,1
34,5,5
39,1,4
43,-2,4
43,-6,8
38,-8,6
37,-11,5
26,-9,7
19,-11,6
8,-10,5
3,-9,7
-4,-4,7
-12,-5,8
-16,-5,7
-17,-4,9
-20,2,6
-21,2,8
-17,0,3
-17,2,0
-11,0,1
-10,-1,-3
-6,-1,1
-3,-2,0
-3,-5,2
1,-3,1
0,-3,1
3,-3,1
3,-4,-2
0,-3,0
0,-4,2
-3,-3,2
-4,-2,2
-6,-2,5
-7,-6,7
-11,-6,7
-7,-3,8
-5,-3,8
-2,-1,1
2,-2,5
6,-1,3
12,-2,2
16,2,0
20,0,0
25,0,-2
27,0,-3
24,0,-7
23,0,-4
22,-1,-2
21,0,-2
17,-2,0
13,-4,-1
10,-1,-1
8,0,0
5,-1,0
3,0,0
0,1,0
-1,2,-1
-2,3,0
-5,2,2
-4,3,-2
-4,3,-3
1,-1,-3
-1,1,-3
1,0,1
1,0,-1
4,-3,-1
4,-2,1
6,-6,2
6,-5,1
7,-4,-2
8,-2,-2
7,-5,0
10,-6,2
10,-5,1
10,-1,1
9,-2,2
6,-1,2
5,-3,0
5,-4,0
1,-6,3
4,-3,2
3,-2,1
2,-4,3
2,0,3
1,-1,3
1,-1,-1
2,-1,0
0,0,2
0,-1,0
2,-2,1
2,-1,0
1,-3,1
3,-4,0
1,-2,0
0,-1,0
0,-3,2
2,-4,4
2,-3,3
2,-3,3
3,-4,0
5,-4,0
3,-6,1
2,-5,1
-2,-8,-2
1,-8,0
-2,-6,0
-3,-7,1
-2,-4,-1
-2,-4,0
-1,-4,4
-1,-1,0
-1,-2,3
2,-3,2
0,-3,1
0,-1,-2
3,-3,0
4,0,0
4,-2,-1
4,-3,-1
6,-2,-1
8,-4,-2
12,-3,-3
14,-4,0
12,-2,-2
12,-1,1
2,0,2
0,0,5
-3,1,3
-8,0,1
-12,2,3
-15,5,4
-14,10,1
-9,12,0
0,15,-3
8,17,-5
16,14,-5
23,11,-5
32,8,-2
34,7,0
35,0,0
36,-3,5
31,-6,4
25,-7,5
15,-10,3
8,-6,6
0,-8,7
-9,-5,2
-15,-3,2
-15,-8,4
-23,-4,0
-23,-8,0
-24,-7,0
-21,-8,-2
-19,-7,-6
-14,-9,-2
-13,-8,-4
-9,-10,-6
-6,-8,-4
-7,-9,-6
-4,-7,-3
-1,-5,-5
-1,-3,-3
-2,0,0
-4,2,1
-4,3,0
-7,6,6
-10,5,5
-12,6,6
-10,5,8
-11,4,9
-13,2,9
-14,0,5
-14,-1,2
-11,-1,0
-9,-6,0
-4,-5,-2
0,-8,-6
3,-6,-6
10,-8,-6
9,-7,-11
11,-10,-12
11,-7,-11
12,-5,-11
10,-6,-13
9,-5,-9
5,-7,-4
3,-3,-5
-2,-4,-2
-2,-3,0
-5,0,0
-7,0,1
-7,3,0
-9,3,0
-7,3,-2
-7,4,-3
-7,3,-5
-3,2,-1
-3,2,-1
0,1,0
2,-1,0
0,0,-1
4,-6,0
1,-3,-2
3,-5,-2
5,-4,-3
6,-3,0
3,-5,0
2,-6,-1
5,-7,-1
4,-4,2
4,-4,1
8,-2,0
10,-3,2
9,0,4
7,0,2
7,-1,5
8,-1,3
6,3,0
5,0,0
4,-2,3
3,-4,0
2,-7,4
0,-7,3
0,-10,0
-1,-6,1
-4,-5,-4
-2,-8,-2
-2,-4,-3
-2,-4,-3
-2,-4,-4
-4,-7,-1
-5,-4,-3
-6,-3,-2
-5,-4,0
-6,-5,1
-5,-2,0
-4,0,1
-4,0,2
-5,-1,2
-5,0,1
-6,0,-1
-4,0,2
-4,0,2
-3,-3,-1
-6,0,-2
-5,0,-2
-1,-3,-3
-3,-2,-3
-1,-4,-4
2,-4,-3
2,-6,-2
7,-6,0
10,-5,-2
15,-8,-1
19,-4,0
19,-2,-2
15,0,-2
11,0,-1
5,0,0
0,0,5
-6,-1,5
-16,7,9
-17,2,11
-18,7,8
-9,10,2
0,10,3
9,5,2
20,6,0
28,3,1
33,0,0
32,-5,0
36,-7,4
31,-8,2
25,-12,4
18,-13,5
10,-12,2
2,-11,1
-7,-9,0
-14,-7,0
-22,-3,-2
-23,-2,-1
-27,3,-1
-31,2,0
-29,7,-3
-30,8,-3
-24,8,-3
-23,6,-2
-19,3,0
-15,0,-1
-9,-4,3
-4,-6,0
-4,-7,2
-2,-11,2
0,-11,1
1,-10,3
2,-12,3
0,-11,5
-3,-11,6
-5,-8,7
-5,-10,6
-8,-8,7
-6,-8,7
-6,-6,7
-7,-3,5
-3,-5,3
1,-4,4
6,-1,2
6,0,0
14,2,0
18,0,-1
20,3,0
21,2,0
18,1,-1
21,1,0
14,2,-5
16,2,0
11,2,-3
7,7,-2
2,4,-5
1,3,-1
-4,5,-3
-4,4,-2
-5,4,-3
-7,4,-1
-8,4,-2
-7,2,0
-7,3,-1
-4,0,1
-3,-3,5
-1,-3,0
-2,-4,2
0,-4,2
1,-5,2
5,-4,0
3,-3,1
5,-6,0
6,-5,-2
9,-5,0
12,-6,2
13,-5,1
15,-7,0
14,-7,0
15,-6,1
14,-8,4
11,-7,6
12,-5,3
9,-3,6
8,-3,6
5,-4,7
0,-3,6
3,-4,7
2,-1,8
3,-1,6
2,-1,7
1,1,8
2,0,8
5,1,10
8,3,7
9,0,9
9,2,10
7,1,6
12,0,7
9,-1,7
6,-3,5
5,0,7
10,-3,4
8,0,3
9,-2,5
11,-2,4
10,0,4
11,-2,4
11,-1,5
19,2,0
14,4,0
10,5,-1
7,4,3
5,5,3
1,0,8
-7,4,13
-14,3,17
-16,2,16
-11,3,14
1,8,9
9,7,7
21,4,4
28,5,0
32,0,0
37,0,0
39,-3,-1
38,-9,-1
37,-9,-5
32,-11,-3
23,-9,-6
15,-8,-5
8,-10,-6
-1,-1,-5
-6,0,-6
-12,1,-4
-16,7,-2
-20,8,-4
-21,12,0
-22,10,0
-21,10,1
-18,8,4
-16,6,5
-13,3,9
-9,0,6
-6,2,3
-2,-4,7
0,-5,7
5,-13,11
9,-12,7
12,-14,7
10,-17,5
11,-13,8
11,-15,10
2,-16,15
-2,-14,17
-6,-11,14
-12,-12,15
-15,-2,15
-18,2,14
-14,4,13
-14,5,14
-9,8,11
-3,12,13
0,12,7
6,12,5
8,11,5
8,8,5
13,3,0
12,2,-1
13,-2,-3
7,-4,-2
5,-6,-1
2,-3,-1
-3,-4,-6
-7,-1,-11
-6,-2,-7
-7,0,-8
-11,0,-9
-10,0,-7
-13,-1,-7
-14,2,-7
-14,1,-4
-9,0,-4
-7,-1,-3
-5,-1,-2
-2,-6,-4
0,-6,-2
0,-8,-3
4,-9,0
4,-6,-4
8,-8,-2
11,-8,-1
13,-5,-1
14,-8,-3
14,-6,-3
13,-2,-1
15,-7,0
12,-3,-2
12,-2,0
10,-1,6
11,0,0
10,-1,2
10,0,5
8,-5,6
8,-4,6
7,-3,6
6,-7,6
8,-5,7
6,-3,5
7,-4,5
9,-4,0
10,-1,-1
10,-2,-1
10,0,1
11,-2,4
11,-3,0
11,-1,-3
13,-3,-4
16,-3,-3
11,-4,-1
2,-5,-3
0,-3,0
-3,-6,-2
-11,-3,1
-17,-1,5
-21,0,6
-23,4,5
-17,3,4
-8,5,2
5,6,-2
9,3,-5
17,2,-3
20,1,-3
26,-3,-5
23,-5,-4
24,-6,-5
17,-5,-4
14,-8,-3
7,-8,-5
0,-10,-7
-5,-4,-10
-10,-8,-10
-18,-1,-7
-22,-2,-6
-28,1,-6
-29,5,-7
-31,5,-2
-34,6,-3
-32,5,1
-28,3,3
-24,2,3
-22,4,3
-16,2,4
-14,0,5
-12,-4,4
-8,-3,7
-2,-6,6
4,-8,4
7,-10,6
11,-8,4
8,-7,6
8,-6,6
9,-8,6
7,-6,7
8,-7,5
5,-2,7
1,-2,6
3,-2,8
5,6,4
9,6,3
14,6,0
18,6,0
21,7,-1
25,6,0
25,4,-5
22,1,-2
27,0,-2
25,0,-4
21,-1,-8
20,-2,-4
14,1,-9
14,1,-6
7,3,-10
2,2,-7
0,2,-10
-1,1,-6
-3,1,-7
-7,2,-7
-9,3,-8
-9,0,-9
-10,4,-6
-8,6,-8
-6,5,-7
-6,3,-4
-3,1,-6
-7,0,-4
-5,1,-7
-7,-1,-4
-3,0,-4
-4,0,-5
-2,-2,0
-1,-2,-3
-1,-1,-1
1,-1,-4
2,0,-3
0,0,-2
2,0,-3
0,3,-3
5,1,-1
4,1,1
7,2,1
9,1,1
9,-1,-1
10,-2,0
6,0,-1
12,-4,-1
11,-2,-4
10,-2,-5
10,0,-2
12,-3,0
12,-4,-2
9,-3,-3
10,-2,-3
6,-2,-2
0,5,-1
-7,2,3
-11,3,2
-14,2,4
-19,4,5
-24,9,7
-29,14,5
-18,14,6
-13,15,4
-3,16,0
12,14,-1
21,9,0
28,6,1
33,2,1
35,0,0
39,-3,-1
37,-7,-2
32,-7,-2
28,-9,-4
18,-8,-2
11,-5,-5
0,-2,-8
-6,2,-6
-11,0,-7
-18,0,-4
-23,1,-3
-27,2,-4
-30,4,-3
-28,2,-2
-26,1,1
-29,2,1
-27,2,0
-23,1,1
-24,-2,-2
-21,-5,0
-19,-5,2
-17,-6,0
-14,-5,0
-10,-5,0
-8,-6,0
-6,-4,0
-6,-5,2
-3,-6,1
0,-5,2
0,-4,2
4,-6,4
5,-6,4
6,-1,7
10,0,7
9,3,6
14,6,5
19,7,6
25,7,3
26,7,5
29,4,2
24,6,-6
29,3,-2
28,1,-4
26,1,-7
25,0,-7
18,-3,-11
14,-5,-8
13,-1,-4
8,-2,-4
6,-1,-7
3,0,-8
-2,0,-8
-1,3,-6
-6,0,-5
-6,1,-7
-4,7,-4
-8,3,-4
-6,3,-6
-5,3,-3
-3,4,-4
-4,0,-2
-2,0,-2
0,3,-1
0,1,-6
1,-2,-5
0,-2,-4
1,-3,-3
1,0,-2
2,-2,0
0,-1,-2
0,2,0
2,0,1
4,2,2
5,0,0
2,1,2
0,0,2
1,2,4
4,-2,3
4,1,4
4,0,2
6,-1,3
7,-3,3
5,-1,2
6,-2,4
5,-4,-2
8,-2,0
6,-3,2
9,-2,1
7,-2,-1
7,-2,2
9,-1,-1
11,-1,1
14,-2,0
15,0,1
14,0,-3
12,4,0
5,2,3
0,0,7
-5,5,6
-11,3,5
-17,7,10
-20,12,9
-18,15,7
-11,18,4
-8,17,4
3,18,0
12,18,1
20,14,-1
28,8,-2
34,5,-3
40,-1,-2
38,-5,-2
37,-8,0
29,-9,0
22,-12,0
15,-9,0
10,-5,1
0,-6,0
-7,-3,0
-12,-2,2
-13,-1,2
-19,-1,2
-18,-1,2
-17,-2,4
-15,0,2
-13,-1,4
-11,0,-2
-7,-2,-2
-6,2,-1
-2,-1,-3
-3,-2,-3
-4,-3,0
-6,-2,2
-3,0,1
-5,0,2
-4,1,4
-5,0,7
-7,0,5
-8,1,7
-8,-3,9
-6,0,6
-6,-4,7
-6,-2,5
-2,-2,6
2,0,4
8,-2,5
10,-1,1
17,0,0
18,-3,0
22,-2,0
24,-1,-2
25,1,-3
24,0,-4
26,1,-2
22,0,-1
23,-1,0
17,0,-3
16,-2,0
13,0,-2
10,-1,-2
7,1,-3
3,0,-3
1,0,-5
-2,0,-4
-4,2,-5
-6,4,-2
-10,4,-3
-5,5,-4
-6,5,-1
-3,4,-2
-2,2,-2
-2,2,-2
-1,1,0
0,-1,1
2,0,-1
-3,-3,0
-1,0,0
2,-1,0
0,0,1
3,-3,0
3,0,0
6,0,1
3,3,5
6,0,2
9,2,-2
7,3,-1
5,3,0
8,3,0
8,4,3
6,3,1
6,2,2
6,2,3
4,0,5
0,3,2
5,0,3
1,0,5
0,-1,2
5,-1,2
3,-1,4
1,-2,3
3,-4,3
3,-2,1
4,0,3
5,-2,2
5,2,0
8,-1,3
6,1,1
3,3,0
5,2,-2
6,2,-4
8,0,0
9,0,-1
8,-1,-2
9,0,0
8,-3,-2
8,-2,-5
9,-1,-3
3,-1,-3
-3,0,3
-11,-1,5
-14,-2,3
-21,-4,2
-25,-4,1
-24,1,3
-25,3,-3
-17,7,-3
-9,10,-3
0,13,-8
9,11,-8
15,9,-7
25,8,-7
31,3,-5
32,-1,-4
31,-7,0
29,-12,0
21,-13,2
15,-15,4
7,-16,7
-4,-14,4
-9,-11,3
-16,-8,0
-20,-6,0
-23,-5,-1
-24,-3,-2
-24,-4,-2
-21,-4,-2
-20,-3,-6
-18,-5,-6
-13,-4,-7
-10,-4,-8
-4,-5,-9
-5,-5,-8
0,-7,-5
-3,-4,-5
-1,-7,-1
-2,-1,0
-3,0,0
-4,0,0
-8,2,6
-7,0,7
-9,-2,7
-7,-2,7
-6,-6,6
-6,-5,4
-5,-5,9
1,-7,4
1,-6,1
8,-3,0
13,-2,0
16,0,-6
24,0,-5
23,0,-5
24,2,-8
25,-1,-7
25,-2,-7
22,2,-4
19,-2,-3
15,0,-3
12,-1,-3
7,-2,-1
3,-2,-2
1,-3,-2
-3,-2,0
-6,0,-2
-10,-2,-1
-10,-6,-2
-11,-3,-1
-9,-1,-4
-12,-5,-3
-10,-4,-1
-10,-7,0
-7,-4,-1
-8,-4,-2
-5,-6,-1
-2,-3,-5
-4,-2,-3
-3,-2,-1
-4,-1,-2
-3,-2,0
-3,-4,0
-2,-2,0
0,-5,2
0,-1,2
0,-7,4
0,-5,0
1,-7,0
3,-2,1
6,-6,1
3,-6,-1
3,-3,1
4,-2,0
3,-4,-1
3,-5,3
0,-4,3
0,-5,5
0,-4,1
0,-4,2
0,-5,3
0,-9,7
-2,-4,4
-3,-3,1
-2,-7,0
-2,-3,3
-3,-5,2
0,-5,2
-1,-4,2
-1,0,3
-1,1,5
-1,1,4
-1,1,0
-1,2,2
1,-1,5
-1,1,3
0,0,4
1,-1,5
0,-3,5
0,-5,6
-1,-2,9
-1,-2,8
-1,-3,9
1,-4,5
-1,-2,6
0,-6,4
3,-5,0
7,-4,0
10,-7,2
11,-5,0
8,-4,1
12,-4,0
17,-3,0
19,-3,0
20,0,-4
15,-1,-2
10,1,0
5,0,-1
-1,0,2
-10,3,5
-20,1,11
-21,8,11
-21,9,10
-14,14,9
-3,12,4
4,10,4
14,7,2
20,5,1
27,1,2
31,-5,0
29,-12,1
26,-15,1
22,-17,0
19,-16,2
10,-13,2
1,-13,0
-5,-10,1
-11,-5,1
-14,0,0
-21,0,0
-22,6,0
-21,4,-1
-18,8,0
-17,7,2
-14,7,0
-11,5,4
-4,2,3
-6,0,3
-1,-1,5
0,-6,5
5,-10,7
6,-11,6
10,-13,6
10,-15,7
7,-12,8
8,-14,7
5,-13,10
4,-12,10
3,-10,13
1,-8,12
1,-7,9
1,-5,13
2,-5,14
5,1,11
10,4,10
13,3,6
13,5,5
21,2,4
26,2,1
23,1,3
25,2,2
27,1,3
21,1,2
20,-1,0
16,0,-1
11,0,0
8,4,1
5,2,-3
1,3,0
-3,2,-3
-4,5,-3
-3,5,-4
-3,5,-2
-5,7,0
-7,2,4
-4,0,2
-3,-1,4
-2,-2,2
-1,0,2
2,-2,3
2,-2,4
5,-5,3
5,-5,3
10,-5,2
8,-7,3
12,-1,0
11,-2,0
10,-3,1
12,-4,1
11,-5,0
9,-6,3
6,-6,5
8,-5,4
5,-6,6
3,0,5
3,-1,7
0,-1,4
0,0,3
0,1,7
-3,0,5
-1,2,7
-3,4,5
0,2,5
0,3,2
0,3,3
0,4,6
2,6,4
2,7,3
6,6,3
7,4,4
7,5,6
7,3,4
5,4,4
6,1,7
5,4,3
4,5,2
4,2,0
0,4,0
0,1,-2
-1,1,-3
-2,2,-2
-8,2,-4
-7,1,-4
-7,-2,-5
-7,0,-7
-4,1,-9
-5,4,-7
-10,5,-9
-11,7,-6
-15,12,0
-18,11,1
-21,10,8
-24,11,11
-20,12,10
-10,11,10
1,14,8
14,14,0
24,11,0
34,10,1
40,4,0
42,3,3
42,-1,2
39,-6,1
36,-7,0
29,-11,0
23,-10,0
16,-8,-2
10,-7,-4
2,-3,-3
-5,-1,-6
-9,7,-4
-16,5,-3
-20,6,-1
-24,11,0
-20,7,1
-19,5,3
-18,4,5
-15,2,7
-12,2,7
-6,1,8
0,-3,9
5,-4,7
5,-5,5
9,-7,4
12,-11,3
10,-8,1
7,-7,2
7,-7,0
5,-9,-3
1,-8,0
-2,-4,0
-6,-1,-1
-8,-3,0
-13,0,0
-16,1,0
-14,3,2
-10,5,-1
-4,3,-3
0,6,-6
4,6,-7
11,9,-7
15,5,-5
14,6,-9
13,3,-7
13,1,-7
8,0,-9
4,0,-8
0,0,-10
-4,-1,-13
-12,-1,-11
-14,-2,-8
-23,-3,-9
-28,-4,-7
-30,-1,-7
-29,-3,-8
-30,-1,-7
-28,-1,-4
-25,0,-6
-20,2,-5
-18,1,-5
-11,-1,-2
-9,1,-5
-5,-2,-2
-1,-3,0
4,-5,2
7,-2,0
7,-5,-1
15,-8,1
16,-5,0
15,-6,-2
17,-8,0
16,-10,0
15,-8,2
14,-10,1
10,-6,3
11,-1,0
8,0,0
6,0,2
5,2,0
0,0,-1
-2,0,0
-2,2,0
-3,1,0
-5,1,-5
-6,1,-3
-8,1,-2
-11,1,-4
-11,1,-4
-14,1,-3
-11,0,-4
-14,1,-6
-12,1,-7
-9,0,-8
-6,-3,-8
-5,0,-10
-4,5,-12
-1,0,-12
1,-3,-12
4,-1,-14
4,0,-14
1,2,-14
-3,6,-10
-8,4,-12
-13,2,-10
-19,6,-7
-22,7,-2
-27,8,2
-27,13,1
-20,13,0
-12,15,1
-1,13,0
10,8,-1
18,7,-1
31,5,-2
36,0,-4
40,-3,-1
40,-5,-1
39,-7,-1
38,-11,2
30,-7,0
26,-9,-4
18,-6,-4
8,-6,-6
4,-4,-4
-4,-6,0
-9,-1,-3
-12,-1,-4
-15,-2,-2
-18,0,-3
-14,-2,-2
-15,0,-5
-14,-1,0
-11,-1,1
-9,-5,-2
-8,-2,3
-9,-2,1
-6,-1,3
-5,-5,4
-5,-5,5
0,-6,5
1,-7,6
3,-7,5
2,-4,4
2,-4,6
2,-2,7
9,-5,7
7,-4,6
8,-4,6
11,0,6
11,1,7
13,0,4
17,4,4
21,5,4
23,6,3
24,4,1
31,7,2
30,8,1
33,4,0
32,4,-1
32,3,0
33,2,-1
31,3,-2
26,1,-3
23,1,-2
23,1,-4
16,2,-2
14,2,-1
9,2,-5
6,2,-2
2,3,-3
0,3,-6
-1,2,-4
-2,1,-8
-6,1,-6
-10,0,-4
-10,0,-5
-9,3,-4
-12,2,-4
-11,-2,0
-7,0,1
-12,-1,-2
-9,-1,0
-9,-1,1
-4,-3,2
-5,2,1
-5,0,2
-1,0,1
2,-2,1
5,0,1
6,1,2
7,0,3
7,0,1
8,1,0
11,1,0
8,3,0
9,2,-1
9,1,1
9,3,0
8,1,0
7,1,1
8,0,3
7,0,4
9,3,4
6,5,4
7,6,8
5,4,3
7,2,3
6,4,1
6,2,0
9,3,1
4,2,0
5,4,-2
4,1,0
5,1,-1
4,-2,-3
7,1,0
8,-3,2
9,1,-2
10,-2,-1
8,1,-2
1,3,3
-3,4,5
-9,4,4
-12,8,6
-15,8,8
-20,12,10
-19,15,9
-14,17,4
-6,18,6
0,16,5
10,16,5
19,15,4
30,10,4
34,3,2
40,0,3
39,-4,2
38,-4,3
38,-7,3
32,-6,2
27,-4,5
18,-3,5
10,0,3
4,2,4
0,0,8
-5,1,8
-11,0,4
-13,-1,2
-13,-2,4
-14,-6,0
-13,-2,-5
-12,-5,-3
-11,-4,-3
-12,-3,-4
-14,-2,-5
-12,-3,-4
-16,-3,-2
-17,-3,-2
-22,0,0
-19,-1,3
-18,0,1
-18,0,0
-15,0,3
-16,1,2
-11,1,1
-10,0,4
-9,2,4
-5,-1,5
-5,2,4
-1,2,2
1,3,4
5,5,3
9,7,2
12,8,2
15,7,3
20,7,4
22,7,5
24,6,6
25,5,5
23,5,6
25,2,9
23,3,6
22,0,5
19,0,2
14,-3,7
12,0,3
8,-4,0
7,-6,1
6,-5,0
4,-3,-1
2,-2,-1
1,-1,-5
-1,1,-3
-3,0,-6
0,0,-5
-1,0,-4
-1,0,-5
-1,-1,-5
-2,1,-3
-4,2,-5
-7,-1,0
-3,-4,-4
-3,-4,-1
-4,-2,-1
-4,-3,-2
-4,-2,-2
-3,-4,0
-4,-2,-1
-3,-1,-4
-2,-1,-4
1,-2,0
0,-3,-3
1,0,-4
3,0,-4
1,-1,-2
2,0,-1
2,1,-1
0,2,0
0,1,-1
0,2,-2
0,1,2
0,0,-1
0,-1,0
-2,-2,-1
-2,-4,0
-1,-3,0
-3,-5,0
-1,-9,0
-3,-5,-4
-2,-7,-6
-2,-6,-5
-1,-8,-5
-1,-6,-7
-2,-8,-2
-5,-7,-3
-4,-8,-3
-2,-7,-5
-8,-7,-5
-7,-6,-5
-7,-8,0
-6,-7,-4
-6,-6,-1
-8,-9,-4
-8,-1,-3
-5,-4,-2
-7,-5,-5
-7,-3,-2
-6,-5,-2
-4,-6,-2
-5,-2,-2
-3,-2,0
-2,-6,-2
-1,-7,0
0,-5,0
-1,-6,0
1,-8,0
3,-5,-2
2,-4,-5
-1,-1,-3
1,-4,-3
0,-4,-1
0,-3,-4
0,-2,-5
0,-3,-4
2,0,-2
2,-2,-1
1,-2,-1
1,-2,0
0,-4,-4
3,-4,-2
0,-3,0
2,-3,0
2,-3,0
1,-1,1
3,-4,3
1,-4,-2
2,-2,3
1,0,2
1,-2,0
1,0,0
1,0,1
3,-3,0
0,0,1
1,1,1
3,-1,3
1,0,2
2,0,2
2,0,1
0,0,0
1,1,3
0,1,1
0,-1,2
1,0,0
-1,0,1
0,0,-1
-1,-1,-2
-5,-1,0
-1,-2,2
-2,-3,0
-1,-5,0
1,-2,0
1,-2,2
2,-3,0
6,-5,3
4,-3,2
6,-1,0
11,0,0
16,1,-2
16,3,-6
14,1,-3
13,2,-2
2,1,-1
-4,3,2
-10,3,5
-15,5,10
-22,7,11
-18,8,10
-8,8,6
0,7,3
10,5,1
20,6,0
26,2,0
25,-2,0
25,-3,0
24,-9,2
16,-9,1
11,-7,3
5,-11,1
-4,-8,1
-11,-6,3
-19,-4,1
-21,-3,0
-25,0,2
-26,2,0
-28,8,0
-25,8,-1
-24,7,-1
-19,7,0
-17,7,2
-11,4,-1
-9,5,2
-6,0,4
-1,-1,5
1,-4,5
5,-6,6
8,-10,9
12,-9,5
15,-12,2
16,-11,4
13,-7,2
10,-6,5
8,-4,4
7,-5,5
6,-6,3
0,-4,4
1,-3,1
0,2,2
0,4,3
0,7,2
5,7,3
6,6,2
17,5,4
18,5,0
19,4,0
21,1,0
22,0,0
20,-1,-1
18,-2,-1
15,-2,-1
8,0,-1
7,0,-3
1,3,-3
-1,2,-3
-3,3,-2
-1,4,-4
-4,9,0
-5,6,-2
-3,8,-4
-3,7,-2
0,5,-1
-2,5,0
1,4,-2
2,3,0
2,1,0
5,-1,3
8,-1,5
10,0,3
6,-4,6
10,-5,5
11,-5,4
12,-6,2
13,-5,3
13,-5,2
10,-6,-1
9,-7,0
11,-5,3
7,-3,1
6,-4,2
3,-3,3
1,0,4
-1,0,2
-1,-2,3
-1,0,4
-2,-1,5
-4,0,8
-6,0,3
-6,3,3
-8,3,3
-7,0,2
-4,0,2
-4,2,5
-3,0,5
-2,1,1
0,0,2
3,0,6
1,0,5
4,2,6
2,4,3
3,5,6
3,4,6
4,4,9
2,2,8
4,1,9
2,2,7
3,2,8
1,0,6
3,4,10
0,2,7
1,3,8
4,4,6
1,1,8
6,1,6
5,3,7
7,-2,4
8,0,7
6,2,4
9,0,6
10,0,4
9,0,7
9,-3,5
6,0,7
7,-2,8
5,0,5
5,0,5
6,-1,1
5,-1,1
7,0,-2
4,0,0
6,2,1
9,4,0
7,5,-6
10,8,-4
12,5,-4
14,5,-5
10,3,-6
6,8,-3
0,6,-5
-5,5,2
-10,5,4
-17,3,8
-18,6,10
-17,12,3
-6,8,4
2,13,-3
10,10,-6
21,6,-8
25,4,-8
28,2,-6
26,-3,-3
25,-6,-3
21,-5,-4
12,-8,0
5,-11,-3
-3,-9,-3
-10,-6,-3
-15,-2,-3
-22,-1,-2
-28,4,-3
-30,4,-5
-28,6,-1
-31,5,0
-29,9,1
-29,6,-3
-20,5,4
-19,4,5
-11,0,3
-8,0,5
-5,-2,6
1,-4,7
3,-9,7
7,-11,8
6,-13,4
11,-13,7
12,-15,3
12,-12,2
12,-15,0
7,-9,0
3,-8,1
1,-8,2
-6,-6,1
-10,-4,1
-17,-1,3
-19,0,2
-18,4,6
-22,3,4
-16,6,0
-15,8,0
-6,4,0
-1,6,-1
4,7,-6
3,4,-5
9,4,-8
5,3,-10
7,2,-13
7,1,-12
5,-3,-12
4,0,-15
1,0,-15
0,0,-15
-1,1,-16
-5,2,-11
-6,0,-13
-8,1,-8
-7,2,-11
-11,2,-9
-11,1,-10
-13,6,-6
-16,2,-7
-18,2,-7
-16,3,-6
-17,3,-9
-17,0,-5
-13,-2,-1
-12,-4,-7
-9,-6,-4
-4,-9,-6
-2,-8,-8
0,-6,-8
2,-10,-8
3,-8,-8
5,-6,-7
4,-6,-7
4,-3,-5
5,-2,-5
6,0,-5
6,3,-1
4,5,0
3,7,-2
1,4,-2
0,7,0
0,5,1
-3,5,2
-4,4,1
-6,5,0
-6,1,-1
-7,1,0
-5,3,0
-3,0,0
-2,0,-2
-1,2,0
0,4,-1
7,2,1
7,1,2
13,2,7
15,3,2
16,1,5
19,3,5
17,1,5
17,0,2
20,1,3
19,0,1
20,-1,2
20,-3,0
18,-1,0
18,-1,4
14,0,0
14,0,2
14,-2,0
12,5,2
5,1,6
0,4,2
-4,5,4
-8,8,6
-13,4,9
-20,10,13
-21,10,14
-19,11,15
-15,16,11
-4,15,11
6,13,8
18,14,2
23,9,2
33,6,2
38,3,3
42,2,0
40,1,3
38,0,2
37,-2,0
27,0,-1
22,0,0
17,2,0
10,3,-2
4,2,-2
-1,1,0
-6,4,0
-11,3,1
-13,1,0
-15,2,0
-15,0,2
-15,2,2
-14,-1,-1
-15,1,0
-11,-2,1
-11,-4,0
-11,-4,0
-9,-1,0
-4,-2,-2
-7,-1,2
-3,-6,2
0,-3,4
0,-2,0
1,-2,0
2,0,1
4,0,3
3,-1,-1
7,0,1
7,0,1
9,3,1
9,3,0
8,5,0
10,9,0
12,5,-1
17,8,2
18,8,-4
20,7,-3
23,3,1
23,4,0
22,4,-2
21,0,-2
18,2,-2
16,1,-4
15,1,-1
11,0,-2
9,3,-3
5,4,0
0,3,-3
0,3,-1
-2,2,-1
-3,4,-2
-5,4,0
-6,3,-1
-6,3,-3
-8,2,-2
-4,3,-4
-4,2,1
-2,4,-1
1,-1,-2
0,-2,-4
2,-1,-2
1,-2,0
0,0,2
2,0,0
3,2,1
-1,1,1
4,3,1
5,2,1
7,0,2
6,0,3
7,2,1
6,2,1
8,2,0
7,2,-1
5,2,-1
8,1,1
6,3,2
6,0,3
4,2,0
6,7,2
2,5,2
4,5,5
3,5,4
4,4,5
4,5,5
4,1,2
5,1,2
5,2,3
7,0,0
6,-1,-1
6,2,-2
6,-1,-1
8,-1,-5
8,-2,-2
6,-1,-7
3,-2,-4
8,-4,-4
8,-3,-2
8,0,-4
4,5,-3
-1,4,1
-9,6,1
-14,5,1
-18,7,2
-22,7,4
-21,8,7
-27,11,6
-22,14,5
-12,17,5
-5,15,4
2,16,1
10,15,0
22,8,0
26,4,0
34,-2,0
33,-4,2
35,-6,2
36,-7,2
28,-7,0
23,-8,1
20,-7,0
14,-6,3
8,-2,1
3,-4,1
-2,-2,3
-5,-5,0
-6,-6,-1
-7,-4,0
-6,-2,0
-4,-1,0
-4,-2,-5
-1,-4,-3
-1,-3,-4
-5,-4,-4
-7,-5,-5
-8,-6,-2
-11,-5,-1
-16,-5,-2
-19,-6,0
-20,-6,-1
-20,-7,0
-19,-8,-1
-19,-7,-3
-17,-9,-6
-19,-7,-3
-16,-5,-4
-17,-5,-1
-11,-6,1
-8,-6,0
-6,-5,1
-5,-5,1
0,-3,0
4,1,2
8,2,-2
13,-1,-1
16,0,-1
17,-2,-2
17,0,-3
15,0,-1
15,-4,1
14,-3,-4
11,-8,-2
7,-3,-5
4,-1,-5
4,-2,-5
2,-1,-6
-2,-2,-7
0,-1,-8
-2,-2,-10
-6,0,-8
-4,-2,-5
-7,-4,-6
-10,0,-6
-6,-3,-3
-4,-1,-3
-7,-4,-3
-6,-3,-4
-7,-4,-3
-7,-6,-2
-4,-5,-3
-4,-4,-3
-4,-3,-8
-8,-4,0
-6,-4,-1
-4,-4,0
0,-4,1
-2,-1,0
-2,-2,2
1,-3,0
3,-1,3
3,-1,2
3,-3,1
3,-4,3
5,-3,3
3,-2,3
-1,-1,3
1,-1,4
-1,-2,2
1,-6,8
0,-4,6
0,-1,6
1,-3,5
2,-2,6
4,-2,7
3,-1,6
5,-1,9
5,0,6
4,0,4
6,-2,4
8,0,5
5,0,1
7,-1,4
8,-1,1
7,0,3
8,-1,3
11,0,2
11,0,2
8,0,0
4,2,1
-3,2,2
-9,3,6
-14,4,7
-19,6,8
-24,8,8
-23,11,9
-20,8,10
-10,13,7
0,12,7
11,10,5
21,6,8
29,3,4
36,0,5
40,-3,6
40,-8,3
35,-11,5
34,-15,4
25,-12,2
18,-11,0
4,-9,0
0,-6,-1
-7,-3,-1
-12,-1,0
-17,3,0
-19,2,0
-22,4,1
-20,7,0
-17,7,1
-16,5,3
-12,3,4
-7,3,3
-5,0,6
-4,1,6
-1,-3,10
-1,-3,10
1,-7,10
0,-8,10
0,-9,13
0,-10,9
3,-9,5
3,-9,7
4,-8,7
5,-9,8
4,-6,6
9,-5,7
6,-3,8
6,-3,9
4,0,11
7,2,10
10,4,10
16,5,7
20,6,8
21,5,7
28,4,6
25,4,2
26,4,2
26,4,3
22,4,2
19,3,0
13,3,0
13,3,0
8,4,0
3,7,0
6,2,-2
3,7,-2
3,3,-1
5,3,0
4,2,-1
3,4,0
3,4,0
3,0,7
2,-1,1
2,2,2
3,1,1
3,-1,0
3,1,0
5,0,1
5,-2,2
4,-3,1
5,-5,3
4,-3,2
2,-4,2
2,-4,2
3,-6,3
7,-5,7
3,-3,2
4,-5,7
6,-3,6
3,-2,4
3,-2,2
4,-3,3
0,1,4
1,0,6
1,4,7
2,5,5
4,3,6
2,3,7
2,3,9
5,3,6
2,0,6
7,4,6
8,2,8
8,2,4
9,3,7
10,4,6
9,3,6
11,2,8
9,2,5
9,3,5
12,-2,6
9,-2,6
11,-1,6
8,-1,3
11,-1,3
13,3,2
11,4,0
8,3,0
8,5,1
3,6,3
0,7,4
-7,9,6
-9,9,11
-14,13,14
-8,13,15
-1,18,9
8,15,8
21,11,4
26,5,6
30,4,2
36,1,4
38,-4,3
36,-9,0
35,-11,-1
26,-12,0
21,-9,0
10,-7,0
4,-6,-3
-2,-2,-4
-9,3,-3
-16,5,-3
-24,7,-3
-22,10,0
-27,13,1
-27,8,-1
-26,8,3
-22,8,3
-18,5,7
-13,3,8
-11,0,7
-7,-4,4
-3,-6,7
1,-7,4
5,-10,10
8,-12,9
9,-13,7
16,-12,10
15,-11,6
16,-10,4
16,-7,3
13,-6,3
13,-5,4
10,-4,7
8,-5,7
5,-3,7
4,-2,6
6,-2,4
7,0,3
11,0,0
13,3,-3
12,3,-5
14,1,-4
14,2,-5
9,4,-6
8,1,-5
6,1,-7
1,1,-6
-1,2,-7
-3,0,-5
-4,0,-5
-6,0,-5
-9,4,-9
-14,7,-9
-11,3,-9
-14,3,-6
-9,3,-6
-9,4,-8
-9,3,-8
-9,4,-8
-8,1,-7
-8,1,-8
-5,1,-3
-3,1,-5
-2,1,-2
-3,0,-2
-1,0,-1
-1,-2,-2
0,-1,-2
0,-3,-1
-3,-4,-3
0,-4,-1
-2,-5,0
-1,-5,0
-2,-2,1
0,-4,-1
-1,-5,1
1,-4,1
-1,-2,1
-1,-2,3
-1,0,0
0,1,2
-2,-2,1
-1,2,3
-2,2,4
2,0,5
0,1,1
3,2,3
0,1,3
-2,1,5
-1,3,4
-2,1,4
-3,-1,1
-2,0,2
-3,0,-2
-1,-1,-4
-2,-1,-2
-4,-3,-4
1,-4,-1
0,-1,-3
3,-1,-5
3,1,-9
0,3,-7
-4,3,-6
-6,4,-5
-9,5,-2
-13,5,1
-16,5,7
-18,9,9
-15,10,11
-5,10,9
5,10,6
14,8,8
26,4,5
34,-3,5
40,0,9
41,-5,6
41,-8,2
39,-13,0
35,-12,-5
30,-12,-6
23,-6,-10
10,-7,-11
0,-1,-14
-7,0,-11
-12,2,-12
-23,2,-13
-26,-1,-12
-32,-3,-13
-33,-3,-11
-36,-6,-7
-38,-2,-6
-36,-1,-4
-33,-2,-4
-30,-2,-4
-31,-2,-1
-33,-5,-3
-27,-4,1
-29,-2,-2
-25,-3,-2
-25,-1,1
-22,-1,3
-16,-6,0
-12,-3,-1
-8,-1,-1
-6,-4,0
0,-5,0
1,-4,0
2,-4,-3
1,1,-1
3,1,-3
2,6,-2
2,8,-5
5,10,-5
10,12,-7
12,12,-8
14,8,-2
16,6,-3
15,7,-3
13,6,-3
12,0,-1
12,0,-5
10,2,-1
10,0,-7
7,0,-7
4,0,-7
4,0,-9
1,1,-13
2,1,-10
-1,3,-10
-4,0,-12
-7,1,-14
-6,1,-11
-10,0,-9
-10,0,-8
-11,0,-7
-11,0,-6
-11,0,-6
-9,-3,-5
-7,-4,-6
-10,0,-11
-9,-3,-10
-8,-4,-7
-6,-8,-7
-6,-7,-8
-7,-8,-6
-7,-8,-5
-6,-8,-9
-4,-8,-6
-4,-8,-9
-4,-7,-4
-4,-8,-6
-1,-8,-6
-1,-7,-5
0,-4,-10
3,-6,-7
5,-10,-10
5,-9,-8
4,-7,-9
5,-8,-13
4,-11,-11
-1,-10,-12
-2,-13,-8
-1,-12,-3
-4,-10,-5
-5,-9,0
-3,-6,1
-3,-3,3
-2,-2,3
1,0,3
1,1,3
2,2,5
4,0,5
9,-2,2
7,-4,-2
7,-5,-5
10,-2,-6
11,-3,-8
10,-3,-9
11,-2,-7
11,-6,-8
11,-6,-12
12,-7,-12
12,-7,-9
10,-3,-9
7,-4,-7
1,0,-5
-5,5,-7
-7,7,-6
-13,13,1
-17,16,0
-16,16,3
-12,16,4
-9,13,5
0,11,7
8,9,4
19,3,4
24,1,2
31,-1,1
37,-4,0
39,-2,-3
39,-2,-4
35,0,-9
29,0,-10
21,0,-9
13,4,-9
3,0,-6
-1,1,-5
-7,0,-3
-13,0,-3
-13,-1,-3
-16,-1,0
-20,0,-5
-19,-1,-4
-16,-5,-7
-15,-3,-6
-17,-8,-7
-14,-4,-9
-13,-5,-8
-11,-2,-10
-15,-5,-8
-12,-3,-10
-14,-2,-9
-14,-2,-9
-12,-3,-6
-12,-3,-6
-13,3,-5
-12,-1,-1
-9,-1,0
-6,-2,1
-4,0,2
-3,-2,0
-4,-1,2
-2,-2,1
0,2,0
4,3,-1
4,5,-4
9,2,-2
14,3,-3
17,2,-5
19,0,-4
17,2,-6
17,1,-7
18,0,-8
16,4,-11
14,3,-4
11,7,-4
8,6,-3
5,6,-4
2,5,-3
4,5,-1
2,5,0
0,3,-1
-4,5,-3
-7,5,-7
-7,6,-6
-7,4,-2
-8,4,-1
-7,4,0
-5,4,2
-4,3,1
-1,2,1
0,4,0
1,4,-1
3,0,-4
2,1,-5
3,0,-5
2,0,-5
5,0,-3
1,2,-3
2,0,-5
5,2,-3
3,3,-3
5,2,-3
7,0,0
1,2,-4
3,2,-3
1,3,0
1,5,-2
-2,1,-1
-3,4,-2
-4,6,0
-4,3,-1
-7,2,-2
-8,2,1
-8,2,4
-10,3,0
-9,0,0
-6,0,0
-6,0,0
-6,-3,2
-2,-7,4
-2,-7,4
0,-9,0
1,-9,0
3,-7,4
5,-5,2
5,-2,2
6,1,2
6,2,2
7,2,-1
7,1,2
5,0,-1
4,2,0
0,2,4
-1,2,3
-2,2,7
0,0,11
-1,3,11
-1,2,9
0,2,8
0,6,5
3,6,2
3,1,-2
0,0,-4
4,-1,-1
5,0,-1
5,0,-1
6,1,0
6,0,3
9,2,8
7,2,8
5,1,11
4,0,10
5,2,14
4,3,17
4,4,17
7,6,13
12,9,10
13,12,9
12,10,4
16,7,1
16,4,-2
20,2,-2
21,4,-3
18,0,0
10,1,-1
6,1,2
-1,3,5
-6,3,3
-16,8,9
-19,6,11
-21,10,15
-15,11,13
-9,11,14
3,9,15
15,9,14
21,6,9
31,1,10
35,0,7
39,-7,4
35,-10,4
30,-14,3
27,-14,3
15,-9,1
7,-11,-1
-3,-9,1
-6,-10,4
-15,-4,2
-20,-1,3
-20,0,3
-23,4,6
-21,10,4
-21,9,6
-16,10,5
-11,10,3
-8,6,6
-6,4,4
-3,2,4
0,-1,3
0,-2,7
1,-3,11
4,-3,14
0,-2,11
5,-4,12
8,-5,7
8,-7,5
8,-7,6
5,-7,5
3,-5,8
4,-3,8
0,-6,6
2,-3,6
0,0,9
0,1,9
0,4,8
0,7,7
6,10,12
12,12,5
15,14,9
22,13,11
21,12,7
22,10,8
19,5,8
16,3,8
14,0,7
12,-4,3
14,-3,6
11,0,2
6,0,0
6,2,-1
2,5,-3
3,8,-3
3,5,-4
4,9,-2
4,9,-3
6,9,-2
9,5,1
8,3,-1
10,5,-3
9,2,-4
9,3,-2
8,5,0
8,5,0
10,0,2
11,2,4
10,3,8
11,-1,11
14,-2,12
14,0,11
17,0,7
17,2,8
16,3,6
17,3,5
14,3,9
13,7,11
13,9,15
10,13,24
15,18,28
15,21,28
19,22,27
20,19,20
17,17,8
14,15,-1
9,11,-2
5,8,0
4,10,2
-1,9,4
-2,12,3
-2,16,8
-2,14,6
-4,16,8
-3,17,10
-4,20,14
-9,19,16
-5,17,14
-7,21,16
-4,19,11
-6,14,5
-10,14,-5
-11,10,-17
-14,6,-21
-18,5,-26
-23,2,-26
-27,5,-21
-29,5,-20
-31,0,-16
-27,2,-14
-30,1,-12
-28,1,-6
-23,-1,-7
-21,-1,-4
-21,-2,1
-19,4,4
-18,1,2
-12,7,5
-10,3,5
-7,2,6
-5,4,10
-1,2,12
2,3,8
5,0,10
11,-2,5
16,-4,5
21,-2,-3
24,0,-3
22,-4,-4
19,-1,-6
16,-1,0
8,2,-2
5,3,7
-2,2,9
-2,5,15
-1,8,15
8,9,14
16,12,9
27,11,12
35,10,11
43,7,13
45,4,12
47,5,11
42,-1,8
39,-2,8
32,-6,7
25,-5,7
13,-6,3
8,-5,6
0,-4,2
-8,-1,-1
-13,-2,-1
-18,1,-2
-21,3,0
-25,4,-2
-24,4,-2
-24,5,-3
-23,4,-2
-21,2,-6
-17,1,-5
-15,0,-5
-10,-5,0
-8,-8,1
-1,-12,7
0,-15,7
5,-16,10
8,-18,11
12,-13,13
12,-15,12
12,-11,13
10,-8,11
5,-2,9
3,0,10
-2,4,9
-5,7,9
-8,10,7
-13,9,8
-16,11,10
-18,11,12
-16,11,11
-14,14,10
-7,16,1
-5,14,-2
-1,12,-11
-2,3,-26
-1,0,-35
-4,-8,-42
-8,-7,-49
-12,-11,-47
-16,-13,-49
-21,-12,-46
-26,-9,-42
-29,-9,-35
-33,-6,-30
-34,-5,-22
-38,0,-14
-36,2,-7
-36,5,0
-35,7,4
-32,9,4
-31,11,5
-27,9,4
-24,8,-3
-19,3,-8
-21,2,-12
-17,0,-15
-15,-1,-16
-12,-4,-15
-9,-5,-15
-6,-7,-17
-4,-11,-15
0,-11,-13
4,-9,-14
6,-11,-12
9,-11,-12
13,-8,-13
14,-8,-10
14,-6,-3
12,-2,-2
18,-2,3
16,2,4
18,2,7
16,3,9
14,3,11
16,6,10
16,4,8
14,5,7
13,6,10
13,6,9
15,6,5
13,2,7
14,2,10
16,-1,7
16,1,5
18,3,3
18,1,3
15,4,2
16,3,1
19,4,0
18,3,4
19,-1,1
18,0,0
18,-2,-2
18,-1,-9
11,-3,-10
10,-3,-15
7,-4,-12
2,-4,-12
2,-7,-10
0,-5,-8
-8,-3,-7
-14,0,-3
-22,0,0
-27,5,-2
-32,2,0
-36,6,6
-37,8,6
-35,9,6
-31,13,3
-20,12,2
-12,12,-1
-2,10,-1
8,10,-2
17,5,-1
28,2,-5
29,0,0
30,-2,-3
34,0,0
30,1,4
26,2,4
24,1,4
20,-4,5
15,4,5
7,8,4
6,7,4
0,9,6
0,6,9
-1,8,7
0,10,6
1,6,5
1,6,7
1,4,4
1,0,2
5,1,4
5,0,6
5,0,3
5,1,0
4,0,2
1,0,0
1,1,-2
1,-2,0
2,2,1
3,-1,0
0,1,-2
-1,2,0
-2,2,0
0,2,-3
0,2,-1
-2,3,-3
-2,5,-4
-1,5,-3
2,3,3
3,9,5
5,8,6
10,11,6
16,11,5
21,16,3
23,15,2
26,14,-2
26,14,-3
26,11,-7
25,8,-10
23,6,-7
20,0,-7
16,-2,-4
13,-4,1
9,-4,2
7,-4,7
5,-3,8
5,-1,6
6,2,5
5,4,2
3,4,-2
2,7,-5
3,8,-5
1,7,-6
2,8,0
-1,6,-4
-1,3,-2
-1,2,0
-1,-1,4
0,-3,8
-1,-7,7
0,-7,7
0,-6,9
1,-1,10
0,2,8
4,0,8
5,2,3
2,4,4
4,4,5
5,6,0
9,6,0
6,0,0
5,4,-2
3,1,-3
4,-1,-4
3,-2,0
3,0,0
1,0,0
0,0,1
1,0,2
0,2,0
0,2,2
1,1,1
0,5,0
3,2,-2
2,4,-3
0,0,-6
0,2,-9
-1,0,-6
1,0,-4
4,0,-2
5,-2,-3
7,-1,-2
9,-3,1
10,-1,3
9,2,5
7,5,10
2,9,13
-1,9,13
-3,14,10
-7,15,12
-6,11,13
-5,15,12
-5,14,9
4,11,6
6,8,1
16,10,0
23,7,-1
29,2,-1
33,1,-4
37,-3,2
39,-3,-1
36,-6,0
32,-7,-1
27,-7,1
24,-10,3
17,-11,5
7,-11,2
2,-11,4
-7,-11,3
-11,-9,1
-15,-7,-1
-18,-6,-3
-24,-11,-2
-26,-8,-3
-24,-7,-5
-24,-9,-10
-21,-6,-10
-22,-8,-14
-24,-6,-18
-26,-3,-18
-24,-2,-15
-27,-1,-16
-29,-4,-13
-33,-5,-13
-29,-6,-10
-26,-10,-4
-26,-9,-3
-23,-13,0
-23,-14,1
-20,-15,1
-15,-13,3
-13,-12,3
-9,-13,0
-7,-10,-2
-4,-8,-4
-5,-4,-3
0,-2,-3
-1,2,-6
4,2,-4
7,1,0
11,0,0
15,-3,2
15,-5,2
16,-7,0
16,-8,2
14,-10,1
13,-3,-1
13,-2,-4
9,0,-4
10,0,-3
8,3,-4
4,1,-2
5,1,-2
3,2,2
2,2,4
6,0,1
3,0,2
2,1,8
3,0,7
7,-3,3
8,-5,3
4,-3,-1
2,-3,1
5,-6,1
3,-3,-2
3,-5,0
0,-6,-2
0,-3,-2
-1,0,-2
-1,-1,-5
-1,-1,-6
-3,-3,-3
-1,-3,-3
0,-3,-2
-1,-1,-4
-2,-1,-1
-2,0,0
-4,-1,0
-5,0,5
-5,-1,6
-5,0,9
-4,0,10
-5,-1,12
-4,0,12
-1,-3,8
-2,0,9
-2,-5,13
1,-5,12
3,-6,9
6,-4,8
7,-1,3
10,2,4
11,2,3
11,7,2
13,8,2
11,4,5
13,5,6
11,3,9
12,2,10
13,0,12
12,0,10
12,0,12
9,-4,14
12,0,12
11,2,7
12,-3,10
13,-1,8
17,-1,3
16,3,2
14,3,3
10,1,5
6,2,2
2,4,2
-3,7,0
-12,2,8
-17,7,10
-18,10,8
-16,9,5
-5,12,2
5,9,1
13,8,0
21,0,2
27,0,4
32,-5,4
34,-3,6
30,-6,6
30,-12,8
24,-5,6
18,-3,5
11,-4,6
5,-2,0
-4,0,1
-11,3,3
-15,3,-3
-18,6,-2
-22,5,-2
-21,7,0
-18,6,1
-19,5,-2
-13,5,-2
-11,4,-2
-6,3,-1
-7,4,0
1,1,4
-1,1,2
1,0,5
2,-5,8
3,-8,7
6,-8,9
6,-11,10
7,-11,6
6,-10,7
6,-8,10
5,-6,9
3,-2,9
6,-4,7
3,-1,11
2,0,13
5,4,10
6,5,14
6,6,10
14,8,10
20,9,8
23,7,5
26,2,4
25,0,7
28,0,2
22,-1,4
19,-2,7
17,0,5
14,3,2
10,4,1
7,5,0
2,6,0
0,6,0
0,6,0
-5,4,0
-4,2,1
-5,5,0
-1,3,2
-3,0,3
0,2,2
3,1,2
2,2,3
6,0,1
5,0,3
8,0,3
5,0,2
7,0,4
9,-1,3
11,-4,5
12,-2,5
12,-4,6
9,-4,3
11,-3,4
12,1,3
8,1,2
7,6,5
9,2,5
10,3,6
8,3,5
6,4,3
6,0,3
5,0,5
6,-3,3
6,-1,5
3,-1,6
1,-1,5
3,-3,6
3,-2,6
2,-1,7
0,0,4
0,0,6
1,0,4
1,4,4
1,2,7
2,5,4
6,2,5
4,5,5
5,2,5
4,-1,2
2,0,5
5,0,4
1,1,3
3,-1,0
3,1,-4
0,0,-3
4,2,-3
1,3,-5
4,3,-4
7,1,-3
8,3,-6
6,5,-6
3,6,-5
1,5,-1
-5,4,-3
-9,5,0
-16,8,3
-25,6,3
-31,12,8
-33,11,12
-30,15,4
-22,13,-1
-13,12,-7
-3,9,-12
8,6,-13
15,4,-15
20,1,-12
26,0,-11
28,-1,-4
24,-1,-6
23,-1,-2
19,-1,-5
13,0,-4
3,0,-7
-1,0,-3
-9,2,-6
-16,4,-5
-25,5,-8
-29,4,-6
-32,3,-8
-35,3,-10
-36,3,-9
-37,3,-10
-32,0,-8
-31,-2,-10
-27,-5,-9
-26,-4,-7
-19,-5,-6
-18,-7,-6
-17,-4,-4
-16,-4,-4
-13,0,-2
-9,-1,-5
-6,-2,-4
-3,-4,-4
-2,-6,-4
-1,-6,-4
0,-8,-3
0,-10,-2
0,-7,-3
2,-5,-2
0,-4,-1
0,-1,0
3,5,-1
7,3,-5
11,4,-4
16,4,-4
20,6,-6
27,8,-7
26,9,-4
28,9,-6
30,10,-4
28,7,-3
29,6,-6
24,3,-5
17,3,-5
16,0,-4
10,-1,-9
9,0,-7
5,0,-7
-1,2,-7
-3,-1,-8
-4,0,-8
-6,0,-7
-10,1,-7
-11,2,-7
-8,0,-9
-6,-3,-6
-8,-1,-8
-9,-2,-9
-7,0,-8
-4,-1,-6
-3,-1,-3
-3,-5,-3
0,-5,-2
-1,-6,-1
3,-7,0
3,-13,-4
2,-14,-1
4,-15,-2
5,-18,-8
4,-16,-9
4,-14,-12
5,-16,-9
3,-14,-9
2,-11,-13
0,-10,-13
0,-7,-15
1,-2,-13
-3,-1,-12
-3,3,-14
-3,5,-9
-6,5,-9
-4,5,-1
-7,7,-4
-6,5,-1
-4,4,1
-7,4,0
-8,4,1
-5,0,6
-7,0,7
-8,-2,8
-7,1,7
-11,0,4
-7,0,3
-8,-1,3
-9,0,3
-6,4,3
-3,1,4
0,3,3
3,7,4
6,8,1
6,7,5
5,10,12
0,12,8
-1,10,14
0,10,13
-5,9,16
-5,6,14
-5,9,18
-3,13,15
4,15,12
11,15,11
19,13,8
27,13,3
33,10,5
40,6,5
42,1,3
45,-2,4
44,1,3
40,-2,0
37,-5,2
34,-5,3
27,-4,1
19,-4,0
11,-2,0
5,-3,3
1,-3,0
-5,-4,-1
-8,-2,4
-11,-1,0
-13,-3,2
-16,-5,1
-15,-3,0
-20,-3,-1
-17,-2,1
-18,-4,0
-15,-8,2
-16,-4,1
-19,-2,1
-17,-5,1
-17,-4,0
-16,-5,4
-11,-4,5
-5,-4,7
-3,-3,5
-3,-3,7
2,-3,7
2,-3,9
5,-4,8
6,-5,7
9,-1,9
9,-1,9
14,-5,11
15,3,6
17,4,3
20,4,3
21,5,2
22,7,0
25,6,-1
26,3,0
26,4,1
21,3,0
22,2,0
21,3,0
18,5,0
19,3,0
13,2,-3
8,0,-3
7,0,-6
4,2,-4
3,-1,-1
1,-5,0
0,-4,-4
-1,0,-5
-1,0,-7
-3,0,-2
-5,0,-2
-4,0,-4
-2,1,-2
-3,-1,-4
-3,1,-1
0,-1,-5
1,-1,-5
4,-3,0
5,-7,1
5,-1,1
6,-3,-1
8,-2,2
8,-4,2
12,0,4
11,-1,5
13,0,4
11,0,3
11,0,0
14,0,2
10,0,2
9,0,3
7,-1,5
4,-3,3
1,-1,4
3,-3,2
0,-3,2
0,-5,2
2,-5,4
-3,-6,1
-3,-4,1
-3,-6,-2
-3,-8,0
-3,-2,1
-4,-2,-2
-2,-3,-1
-2,0,0
0,1,-1
-2,3,-2
-2,1,0
0,-2,0
-3,2,0
0,-1,0
-3,0,-3
0,-4,3
-3,-2,0
-1,-1,0
0,-2,-3
-1,-5,-4
0,-3,-4
4,-3,-4
2,-4,-5
3,-3,-2
8,-5,-7
3,-2,-6
0,1,-2
-6,2,-2
-11,3,-1
-17,-1,2
-17,3,4
-23,8,4
-25,11,5
-22,11,5
-14,16,4
-4,16,2
7,15,3
17,15,3
25,11,0
33,6,4
37,0,3
39,-5,4
39,-10,7
35,-13,9
28,-17,9
20,-17,8
15,-14,7
7,-12,3
0,-8,4
-4,-5,5
-11,-2,2
-12,0,3
-14,3,1
-10,6,0
-14,7,-3
-7,8,-1
-7,8,-6
0,6,-2
0,3,-2
0,1,-2
2,-2,1
0,-1,4
-2,-2,1
-1,-5,6
-4,-8,9
-7,-7,7
-7,-7,6
-4,-8,4
-6,-7,8
-9,-8,11
-6,-6,12
-4,-4,8
-1,0,6
4,0,10
8,0,13
14,0,10
18,1,12
28,2,12
36,5,13
40,13,12
46,7,13
47,9,14
49,11,15
47,10,15
44,10,14
42,9,16
38,7,12
35,4,16
29,2,10
25,2,11
25,-1,8
15,-1,8
9,-5,4
9,-7,8
1,-2,3
-2,-6,0
-5,-6,1
-4,-5,2
-5,-6,0
-6,-6,-1
-6,-3,-2
-6,-3,-2
-5,-4,-1
-5,-4,0
-6,0,-1
-7,0,-2
-5,-2,-1
-6,-3,0
-5,-4,-1
-7,-1,-2
-7,-4,-6
-10,-2,-5
-7,-2,-4
-10,-1,-3
-12,-3,0
-10,-4,-5
-13,-7,-5
-13,-4,-4
-14,-7,-3
-14,-4,-5
-14,0,-5
-15,1,-4
-12,-1,0
-10,1,-1
-10,0,-3
-9,3,0
-8,-1,-1
-5,1,3
-5,-1,4
-3,0,4
-2,0,1
-2,-1,3
1,1,3
0,1,3
0,2,4
0,5,7
0,3,2
5,2,6
7,5,5
6,3,8
12,0,7
12,0,7
8,0,8
7,-2,10
10,-2,11
8,-4,11
9,-5,7
11,-3,5
9,-2,3
12,-4,6
11,-1,3
11,0,4
12,0,3
14,-1,6
15,0,2
16,0,0
13,1,-2
10,1,0
3,3,1
-1,4,1
-4,6,4
-12,8,8
-18,11,11
-22,14,14
-20,10,14
-12,12,11
-2,13,7
10,9,5
20,13,3
27,4,0
33,0,1
34,-4,0
31,-4,4
31,-8,2
25,-7,-1
18,-8,-1
8,-5,-3
3,-3,-2
-2,-2,-2
-10,3,-6
-16,5,-2
-19,11,0
-20,11,0
-21,13,2
-19,12,4
-17,9,4
-14,7,4
-11,6,3
-8,0,7
-3,0,3
-2,1,8
2,0,9
6,-3,5
4,-6,4
6,-8,5
9,-7,4
8,-9,5
9,-8,4
9,-10,4
11,-6,3
5,-6,6
4,-4,6
5,-3,6
2,0,9
1,2,5
4,4,9
2,5,7
5,7,7
9,9,7
16,10,6
22,10,3
28,10,5
28,9,5
30,7,4
30,9,4
33,8,4
29,9,2
29,9,5
29,11,7
30,10,7
31,14,6
31,11,6
34,14,6
34,15,7
35,17,11
37,13,13
37,16,11
37,16,10
38,14,13
37,13,14
39,10,11
40,11,14
39,8,14
40,4,12
40,3,12
36,3,13
35,-1,12
34,-4,10
31,-4,9
27,-4,9
27,-7,6
23,-5,7
24,-6,6
21,-5,5
17,-5,4
14,-3,0
12,-4,0
6,-4,0
1,-2,-1
-2,-1,0
0,0,0
-11,2,0
-17,5,0
-19,5,0
-22,5,0
-24,7,1
-25,4,0
-25,4,-3
-25,6,-3
-22,6,-1
-21,4,-3
-18,5,1
-15,1,0
-13,-2,-1
-7,-1,-1
-5,-1,-2
0,-1,-3
3,-3,0
1,-7,-4
4,-6,-7
4,-4,-8
6,-4,-2
7,-5,-3
13,-4,-4
12,-2,-7
11,1,-9
6,3,-4
2,2,-4
-5,8,-1
-9,7,-2
-14,8,1
-21,12,4
-24,14,7
-22,14,6
-19,17,4
-9,15,3
0,15,2
7,14,-4
18,12,-8
27,9,-7
29,3,-9
36,-1,-9
31,-1,-7
28,-5,-7
21,-5,-12
14,-3,-12
8,-6,-11
0,-6,-13
-8,-5,-12
-16,1,-14
-23,2,-15
-25,3,-11
-31,2,-9
-33,1,-13
-38,2,-11
-38,0,-14
-36,0,-10
-33,0,-9
-30,0,-11
-24,0,-13
-22,-2,-9
-22,-1,-11
-19,-5,-11
-17,-4,-7
-17,-3,-7
-16,-4,-6
-10,-5,-5
-9,-6,-4
-4,-6,-4
-5,-5,-3
-3,-4,-1
-3,-4,0
-1,-6,0
-1,-5,2
0,-5,5
0,-3,3
2,2,5
5,5,7
10,7,6
18,6,4
18,12,3
25,11,5
30,9,4
32,9,3
37,5,5
35,1,3
34,0,6
34,-3,3
31,-3,3
30,-3,0
28,0,-1
23,1,-2
17,3,-3
16,2,-3
13,3,-2
9,5,-4
7,7,-6
3,4,-3
3,3,-1
2,5,-2
3,3,-2
0,1,-1
2,1,-3
0,3,-1
1,3,-2
1,1,-2
1,1,2
1,0,-3
1,-1,0
1,1,0
0,-1,-1
0,-2,0
1,1,0
-1,0,0
-2,0,-2
-3,1,-4
-2,4,-3
-5,4,-1
-3,4,1
-3,5,0
-2,6,0
-3,6,1
-2,4,1
-2,6,0
0,3,2
3,3,2
4,0,1
3,1,2
6,1,2
9,-1,6
4,0,4
7,1,5
7,0,1
7,0,1
7,-2,2
8,1,0
7,2,0
9,1,0
5,0,-4
8,0,-1
8,1,-4
10,3,-2
10,1,-2
8,3,-3
5,2,-2
1,3,-1
-5,6,-1
-15,6,-4
-18,6,-3
-23,8,-1
-24,9,0
-28,13,0
-24,15,-3
-16,17,-3
-9,18,-4
-1,14,-2
9,14,-5
16,11,-4
20,10,-6
26,1,-1
29,0,-1
31,-6,0
25,-5,3
24,-6,4
16,-4,4
11,-6,4
5,-4,4
0,-3,3
-4,-3,3
-8,-1,3
-12,-3,2
-10,-2,1
-12,-1,-1
-10,-1,-3
-8,-3,-2
-7,-3,-4
-6,-4,-7
-4,-3,-6
0,-4,-5
0,-3,-1
-5,-2,-5
0,-3,0
-5,-3,0
-5,-2,2
-6,0,4
-9,1,3
-6,0,5
-5,0,8
-5,-2,8
-6,1,7
-4,-1,7
-5,0,7
-5,1,4
-5,2,2
1,2,1
1,0,0
4,0,0
5,3,-2
7,4,-3
11,4,-4
13,4,-4
13,5,-2
13,4,-5
14,1,-4
12,0,-6
11,0,-2
10,-2,-3
12,-3,-2
5,-3,-5
4,-1,-3
6,-1,-8
1,-3,-3
0,0,-6
-1,-2,-6
-5,0,-8
-6,-1,-5
-7,-3,-5
-8,0,-7
-12,1,-7
-14,0,-11
-9,0,-7
-12,1,-11
-12,-2,-8
-10,0,-7
-10,-2,-6
-8,0,-5
-8,0,-5
-5,-1,-4
-7,0,-2
-3,1,-5
-3,1,-4
-2,0,1
2,-1,0
0,0,0
1,1,-1
1,0,0
3,0,0
6,0,2
4,0,0
4,0,0
3,0,2
6,0,1
7,1,0
7,0,-2
9,-1,2
5,1,0
7,2,1
7,1,2
4,0,6
3,0,6
6,-1,2
5,0,2
3,1,2
2,2,3
4,1,4
2,-1,0
3,-2,3
3,3,0
3,1,1
1,1,2
0,0,0
0,0,1
0,0,-1
0,-1,-2
0,-2,-2
-1,0,-4
0,2,-4
0,-2,-2
-1,-4,-4
3,-3,-3
4,-5,-2
5,-3,-2
5,-1,-2
4,0,-3
0,1,0
-7,5,1
-11,3,-1
-14,4,1
-19,5,3
-18,8,3
-19,9,1
-15,11,2
-5,11,0
3,14,0
14,15,0
22,10,0
30,7,-2
36,0,1
38,-1,3
36,-5,5
32,-10,6
28,-11,10
18,-9,4
12,-16,8
5,-7,10
0,-11,6
-5,-6,6
-12,-6,6
-14,-4,0
-19,-2,1
-19,-3,-4
-20,-3,-6
-18,-2,-5
-13,-5,-10
-14,-3,-10
-11,-4,-8
-7,-2,-7
-5,-2,-9
-4,-3,-6
-5,-7,-5
-6,-3,-4
-5,-5,-2
-8,-1,-2
-5,-4,2
-10,-4,0
-6,-4,1
-10,-3,1
-10,-2,0
-10,-4,1
-11,-4,0
-12,-2,1
-12,-4,2
-10,-4,1
-9,-3,0
-7,-3,-2
-4,-2,0
1,-2,-4
8,-5,-1
13,0,-6
16,-1,-5
17,-2,-3
19,-4,-4
19,-2,-1
13,-1,-2
16,0,-2
13,0,-1
10,1,-1
7,0,-2
3,2,-1
2,0,0
-1,0,-2
-4,0,-4
-3,1,-3
-7,-1,-5
-6,1,-4
-9,1,-5
-5,-4,-5
-8,0,-4
-5,-2,-7
-2,-3,-5
-4,-5,-7
-3,-7,-5
-3,-6,-6
-2,-5,-7
-7,-7,-5
-3,-3,-2
-2,-4,-1
-2,-1,-2
-3,-5,1
0,1,-1
0,-2,0
3,-3,0
2,1,0
3,-1,1
4,1,2
3,1,0
4,0,0
3,-1,1
3,-2,0
3,-2,2
3,-4,1
4,-5,1
2,-3,1
1,-4,2
1,-3,3
1,-3,0
2,-1,1
1,-4,4
1,0,4
1,-2,0
1,0,1
3,0,3
1,2,3
4,0,4
1,2,6
0,2,3
-2,1,4
-2,0,3
0,2,2
0,2,5
-2,4,1
1,1,1
-2,1,2
0,0,5
0,0,4
0,-2,4
0,-1,4
3,0,4
1,-2,0
0,-3,-2
0,-3,2
3,-2,1
4,-5,-1
4,-2,1
8,-6,1
7,-8,0
9,-8,4
10,-4,3
12,-3,3
15,-3,-1
16,1,-2
15,1,0
10,3,0
4,4,-1
1,6,0
-8,4,5
-13,7,6
-17,7,12
-17,12,9
-12,12,9
-1,12,8
10,10,4
18,10,1
25,8,4
32,1,3
34,-3,3
32,-8,4
29,-10,3
24,-11,2
19,-12,3
10,-12,5
2,-11,1
-7,-8,-5
-12,-4,3
-19,1,0
-23,3,-1
-22,5,0
-23,9,0
-21,7,0
-18,8,-1
-17,10,0
-12,8,1
-11,4,1
-8,2,3
-3,-1,3
-2,-1,6
1,-3,7
3,-8,8
7,-12,8
7,-12,8
6,-11,8
10,-11,5
8,-10,7
5,-7,7
4,-4,11
2,-3,7
4,-4,4
1,-2,6
4,1,6
3,5,10
2,8,9
8,14,10
13,16,6
21,20,7
27,18,7
32,18,4
38,20,2
43,15,6
43,15,5
42,14,5
39,13,6
37,10,2
33,7,7
28,9,6
25,6,5
19,9,2
15,11,1
11,8,4
7,10,2
5,8,0
4,8,0
3,6,0
1,8,0
1,6,0
3,4,0
3,1,-1
5,0,1
3,0,1
0,-2,2
4,-6,1
4,-8,1
4,-7,-1
5,-8,2
4,-8,0
6,-6,-3
4,-8,0
4,-3,-2
2,-4,-4
0,-6,-4
0,-4,-1
-4,-1,-2
-4,0,-2
-7,-3,1
-7,-2,2
-9,-2,2
-11,2,2
-11,2,4
-11,1,2
-10,2,1
-9,3,3
-5,0,4
-7,3,3
-3,2,5
-1,0,6
1,5,4
5,0,8
7,1,8
11,2,6
13,1,9
14,4,7
14,1,9
15,4,7
14,2,11
13,2,11
12,5,10
12,1,9
12,2,5
14,0,4
11,0,3
12,-3,4
10,-2,1
10,-4,4
10,1,2
12,0,1
13,3,-3
11,3,-2
4,3,1
4,6,1
-1,7,0
-7,7,6
-13,10,7
-16,12,10
-18,15,10
-12,16,10
-3,16,4
10,15,4
15,13,2
23,5,3
29,2,2
31,0,0
30,-5,0
29,-7,0
25,-9,2
21,-11,1
12,-9,0
7,-9,2
0,-5,-2
-7,-2,-2
-12,2,-3
-14,6,-4
-17,9,-2
-21,11,0
-17,11,-1
-17,11,1
-15,14,3
-15,10,3
-8,7,3
-6,3,8
-2,3,3
3,-1,8
5,-3,7
8,-6,8
11,-9,7
13,-9,9
18,-13,8
17,-13,7
17,-11,4
18,-8,6
14,-11,4
12,-6,3
10,-2,7
5,-1,5
2,2,5
2,3,5
-1,5,5
0,9,5
2,11,4
8,6,2
12,11,0
13,7,-2
19,7,-1
19,5,-2
17,5,-2
14,1,-3
12,0,-2
8,2,-3
2,0,-4
0,-2,-3
-1,0,-4
-4,-1,-5
-3,1,-4
-6,4,-5
-8,2,-5
-9,4,-8
-9,5,-9
-8,4,-6
-7,6,-7
-9,5,-6
-6,5,-3
-9,0,-6
-6,0,-4
-3,0,-3
-5,1,-5
-6,-1,-4
-6,-2,-5
-8,-1,-4
-9,-1,-3
-7,-2,-4
-4,-4,-3
-7,-3,-5
-3,-2,-7
-3,-3,-5
-3,-5,-1
0,-4,-1
0,-2,0
0,-2,1
2,-2,0
0,-1,0
2,1,0
2,1,-1
5,3,0
2,3,2
2,4,2
4,5,1
6,2,1
7,2,3
7,4,3
5,3,7
7,1,5
5,0,5
2,-1,4
6,0,0
2,0,0
2,0,0
1,-3,-2
3,-3,-1
0,-3,-1
0,-1,0
2,-2,-2
4,-6,-3
6,0,-3
0,0,-4
-5,1,-1
-7,3,-1
-10,4,-3
-14,5,2
-16,9,7
-18,13,3
-14,13,5
-6,17,4
3,17,3
16,14,2
24,10,1
32,10,0
38,3,1
42,0,1
38,-3,-3
35,-5,-1
31,-9,-4
23,-7,-3
14,-6,-4
8,-2,-5
-1,-1,-3
-10,0,-7
-15,4,-4
-17,4,-6
-23,6,-7
-21,8,-5
-23,8,-5
-23,5,-4
-21,3,-1
-20,4,-4
-15,3,-2
-14,2,-1
-10,0,-1
-10,-2,0
-8,-4,1
-5,0,0
-7,-4,0
-6,-6,2
-4,-2,1
-6,0,0
-3,-4,-2
-1,-3,-2
0,-1,-1
0,-2,0
2,-6,-1
4,-3,0
4,1,0
6,-1,3
6,3,2
8,4,5
14,5,6
16,6,5
20,10,2
25,10,0
26,7,0
26,8,-2
26,7,0
21,6,0
23,1,0
17,0,0
16,1,-2
12,1,-6
9,-2,-1
3,3,-5
0,0,-6
-1,3,-4
-5,3,-3
-6,0,-6
-7,0,-4
-13,5,-9
-16,6,-8
-11,4,-3
-13,5,-4
-12,2,-5
-12,4,-5
-10,3,-4
-6,4,-4
-7,3,-2
-6,1,-2
-3,-1,-1
-2,-1,-3
-3,-1,-2
0,-4,-3
-1,-2,-4
1,-5,-3
0,-3,-3
2,-3,-1
2,-3,0
2,1,-3
3,1,-4
3,0,0
4,2,0
4,1,0
3,2,1
2,2,0
1,3,0
0,1,0
-2,5,2
-1,8,-2
-3,4,2
-2,3,1
-1,2,1
-3,2,0
-2,3,3
-1,0,2
-1,-1,2
-3,0,2
-3,-3,0
-3,-2,0
-2,-1,0
-1,-4,0
1,-4,-1
-1,-5,-2
1,-3,-5
3,-4,-4
5,-3,-3
5,-3,-5
7,-5,-8
4,-3,-6
-1,-6,-2
-7,-2,0
-15,-2,-2
-20,-5,4
-22,-7,8
-27,-1,12
-30,1,13
-24,2,17
-17,-3,13
-5,-7,12
8,-10,8
16,-11,1
29,-17,-5
33,-26,-6
37,-33,-9
39,-35,-11
33,-41,-12
26,-41,-11
17,-36,-15
8,-34,-12
0,-31,-9
-10,-28,-14
-17,-21,-12
-25,-10,-8
-29,-3,-6
-34,1,-6
-35,11,-3
-35,21,-2
-35,33,3
-32,32,0
-26,35,-1
-25,33,0
-21,33,-2
-20,31,-2
-18,35,-1
-17,34,1
-14,36,1
-11,29,1
-13,26,5
-13,30,6
-8,32,7
-7,29,4
-6,36,0
-4,36,4
-3,32,4
-4,35,7
0,34,5
3,35,10
4,30,9
6,35,11
6,39,12
11,39,11
14,41,11
19,40,11
23,44,14
27,44,15
27,42,14
27,38,13
26,40,7
22,35,7
17,29,5
12,29,3
7,26,-3
3,32,1
-3,36,-6
-3,42,-7
-10,43,-5
-9,48,-10
-14,51,-9
-16,51,-6
-19,51,-9
-18,47,-9
-16,42,-8
-16,37,-11
-15,31,-6
-17,24,-2
-11,19,-5
-11,13,-1
-10,9,-1
-9,2,-4
-10,3,-7
-11,0,-12
-13,0,-14
-13,-2,-12
-14,1,-14
-19,1,-14
-16,2,-16
-17,0,-10
-19,-21,-6
-20,6,-8
-20,7,-9
-22,1,-6
-21,5,-5
-19,12,-4
-19,8,-5
-17,-4,-2
-18,-12,-3
-14,-8,-2
-13,-14,-2
-14,-10,-7
-15,-14,-2
-16,-14,-3
-15,-19,-3
-15,-18,-4
-14,-14,0
-15,-12,-3
-14,-7,1
-13,-4,-1
-12,0,0
-13,4,0
-13,6,0
-8,5,4
-7,12,3
-7,9,-6
-3,7,1
-4,7,-1
-5,4,-1
-6,6,-2
-6,7,0
-5,6,3
-7,5,0
-5,3,1
-4,0,2
-7,0,3
-7,2,0
-5,-1,5
-9,1,-1
-9,-1,1
-8,-4,-1
-7,-6,-2
-6,-9,-1
-6,-8,-1
-6,-7,1
-4,-10,0
-5,-6,-2
-1,-7,-1
3,-7,-3
5,-4,0
3,-1,0
0,2,0
-2,10,1
-5,11,4
-6,7,6
-13,9,13
-15,15,14
-12,16,14
-8,13,12
2,8,11
11,3,7
23,0,2
32,-5,5
36,-5,0
35,-5,0
32,-7,0
27,-5,2
17,-6,4
14,-5,7
2,-3,7
-4,-5,7
-10,-4,10
-13,-5,10
-13,-4,10
-13,-3,10
-14,-4,10
-13,-4,7
-12,-3,3
-9,-4,4
-6,-4,6
-9,-3,0
-5,-4,-1
-2,-5,0
-2,-7,1
-2,-8,1
1,-10,1
0,-13,0
0,-15,4
0,-13,5
1,-12,3
0,-15,2
0,-17,1
0,-20,3
-1,-20,4
-3,-27,1
-10,-25,1
-8,-26,2
-5,-28,4
-7,-28,1
-5,-24,3
-3,-20,0
-1,-16,2
7,-14,-1
11,-15,-3
17,-14,-3
23,-14,-2
28,-6,-4
29,-8,0
28,-6,1
30,-3,0
27,6,2
25,12,-1
22,18,3
18,17,3
19,20,0
19,18,0
14,15,1
12,14,1
10,14,3
8,11,0
8,9,0
7,9,-1
6,5,0
2,4,1
4,1,1
3,1,1
1,0,-2
4,-1,1
4,-2,0
0,-9,-1
2,-6,-4
2,-8,-2
1,-8,-5
0,-4,-3
0,-2,-1
2,2,-3
3,7,-1
4,9,0
3,13,1
4,13,2
4,12,0
4,9,0
5,5,1
2,1,1
3,1,5
0,78,-1
2,13,0
2,0,4
0,-7,3
-1,-5,4
0,-13,5
-1,-7,8
-4,-8,7
-2,-9,8
0,-7,5
0,-7,5
2,-8,4
5,-4,4
5,-4,4
5,-3,6
9,-3,5
9,-3,4
11,-6,5
8,-3,6
11,-6,6
10,-6,5
12,-7,5
11,-8,5
10,-7,2
8,-8,2
10,-7,0
7,-7,1
10,-9,2
12,-10,1
15,-7,0
15,-6,0
12,0,-1
9,-1,4
1,0,1
-2,-1,4
-7,2,4
-9,-1,6
-14,3,4
-14,7,7
-15,9,6
-6,10,4
3,10,2
6,13,-1
17,11,-1
19,9,0
29,1,-2
29,0,-1
31,-2,-2
26,-3,2
25,-5,3
20,-2,3
13,-5,2
9,-6,5
0,-6,0
-3,-3,0
-7,-4,0
-9,-6,-2
-13,-3,-2
-14,-7,0
-15,-6,-3
-11,-5,-3
-13,-3,-4
-11,-6,-5
-9,-4,-3
-8,-6,-3
-8,-6,-2
-7,-3,-3
-5,-4,-2
-2,-1,0
-6,-2,0
-5,-3,2
-5,-1,0
-9,-4,2
-5,-1,2
-5,-4,2
-7,-3,4
-4,-1,4
-6,-3,5
-10,-4,2
-7,-6,5
-6,-6,0
-5,-5,4
-4,-7,-2
-1,-7,0
0,-6,3
9,-5,1
13,-9,0
14,-6,0
15,-6,0
16,-8,-3
18,-7,-1
14,-10,0
14,-7,-1
14,-4,-3
11,-3,0
7,-5,-2
7,2,-5
4,0,0
4,-3,-1
3,-3,0
1,1,-1
-2,-2,-2
-1,-1,-1
-2,0,-4
0,-1,1
-1,0,-1
-2,-2,-3
0,0,-2
0,0,-3
1,-1,-2
1,0,-3
1,-4,-2
0,-2,-2
0,-2,-3
-3,-1,-1
1,-2,0
1,-2,-1
1,-2,-1
3,-2,-2
1,-1,-2
3,0,-3
4,0,-3
3,0,-5
4,-1,-3
7,-2,-6
4,-1,-3
8,-5,0
8,-5,-3
5,-3,-3
8,-5,-1
7,-9,-2
5,-6,-2
5,-7,-3
4,-10,-3
4,-10,-5
2,-9,-6
4,-9,-3
3,-7,-4
5,-10,-3
5,-7,-4
6,-6,-5
1,-4,-5
-4,-5,-2
-10,-5,0
-17,-4,0
-21,-3,-2
-26,0,1
-28,1,3
-30,5,5
-25,8,4
-16,7,3
-10,12,0
0,11,1
9,9,0
18,5,2
27,2,1
32,-2,-1
36,-5,2
32,-9,1
28,-9,0
26,-12,2
18,-12,2
14,-15,2
6,-12,3
1,-13,2
-5,-11,0
-7,-10,0
-11,-7,0
-17,-6,0
-20,-5,0
-18,-1,0
-17,-1,0
-19,0,-3
-17,2,-4
-13,0,-5
-13,4,-6
-14,4,-5
-14,0,-6
-16,0,0
-14,-2,2
-14,0,2
-13,-1,5
-13,-2,3
-7,-3,5
-9,-4,6
-7,-4,6
-5,-5,7
0,-6,8
-1,-8,7
2,-9,7
3,-8,6
3,-8,4
7,-3,6
9,-3,7
13,-1,4
15,3,1
20,2,3
20,4,3
23,3,2
24,3,4
23,1,1
22,2,3
19,2,4
19,2,0
12,2,1
11,2,1
9,1,1
6,0,0
7,2,2
3,1,1
3,0,-1
3,1,0
2,2,-1
1,0,1
2,0,0
5,0,0
5,0,0
5,-2,4
9,-1,2
9,-2,3
9,-4,4
9,-3,1
5,2,0
9,-4,2
7,-2,1
5,0,0
6,-1,1
5,1,2
4,0,4
3,1,3
3,0,4
5,1,2
6,5,4
5,3,3
5,4,2
8,3,4
7,2,5
11,2,8
7,1,7
7,1,8
5,0,7
6,-3,5
7,-2,6
8,-3,4
7,-1,5
4,-2,0
8,-2,2
7,0,1
7,-3,3
7,0,1
10,-3,1
10,0,2
9,2,1
4,3,3
-2,8,2
-4,5,4
-9,8,4
-12,10,7
-17,12,12
-20,12,15
-14,15,13
-5,16,12
3,13,12
14,17,5
29,13,8
38,9,4
44,1,4
45,-2,3
47,-7,1
44,-10,3
37,-12,2
29,-15,0
23,-13,0
10,-11,0
1,-8,0
-6,-5,0
-13,0,0
-15,1,-4
-22,3,-1
-22,7,-3
-21,10,-1
-23,9,-3
-17,8,0
-17,5,1
-13,8,0
-9,5,4
-7,1,3
-6,2,3
-1,0,6
3,-2,5
3,-1,6
6,-5,7
8,-5,9
7,-2,6
10,-5,7
9,-3,7
8,-2,7
8,-1,9
6,-3,9
7,0,8
6,2,9
5,3,11
6,4,10
11,9,10
15,6,12
18,11,6
26,7,5
30,12,6
31,11,3
32,9,6
33,8,4
30,6,3
31,4,4
28,5,2
26,3,1
23,3,1
20,7,0
18,0,-1
17,2,0
14,2,-1
9,2,1
11,2,0
11,0,-2
11,2,-1
9,1,-3
10,1,0
9,1,-1
8,1,-3
6,4,1
6,1,2
0,1,-1
3,-1,1
1,-1,0
0,-1,2
-3,-2,0
-3,0,1
-5,-3,0
-1,-1,2
-2,-3,1
-2,-4,-1
-3,-1,-2
-4,0,-2
-2,0,-4
-1,0,-4
-3,4,-3
-5,3,-4
-5,3,-2
-7,6,-1
-5,1,-1
-7,4,-2
-9,5,-1
-9,6,-3
-8,2,1
-10,2,0
-6,2,-1
