77049
77049
77062
77054
77056
77067
77098
77103
77111
77109
77122
77130
77150
77166
77168
77092
77016
76969
76956
76958
76962
76972
77005
77037
77044
77070
77092
77072
77074
77091
77118
77107
77132
77143
77162
77170
77158
77203
77206
77216
77136
77076
77025
77009
76980
77017
77012
77025
77050
77065
77110
77119
77122
77135
77138
77131
77164
77157
77170
77205
77205
77210
77227
77239
77252
77249
77211
77125
77070
77047
77022
77021
77033
77042
77093
77113
77130
77126
77132
77143
77136
77143
77159
77176
77164
77186
77193
77227
77216
77239
77247
77249
77276
77286
77270
77281
77228
77136
77072
77053
77054
77057
77056
77074
77094
77123
77144
77148
77164
77146
77152
77159
77160
77157
77167
77203
77208
77208
77229
77217
77239
77244
77263
77250
77271
77287
77302
77293
77322
77317
77214
77155
77082
77058
77060
77050
77056
77081
77088
77108
77121
77147
77127
77158
77137
77134
77131
77137
77164
77170
77171
77201
77188
77193
77221
77235
77251
77248
77269
77258
77266
77275
77273
77238
77139
77071
77033
77026
77032
77028
77039
77065
77085
77106
77109
77122
77104
77127
77123
77111
77108
77147
77144
77172
77141
77153
77186
77195
77185
77183
77237
77244
77199
77121
77032
76986
76973
76971
76971
76978
76979
76995
77026
77051
77072
77068
77057
77058
77076
77066
77099
77096
77121
77116
77138
77151
77156
77158
77184
77172
77078
77006
76951
76923
76930
76920
76938
76958
76972
76976
77012
77002
77028
77037
77046
77034
77049
77061
77088
77085
77097
77102
77106
77113
77145
77098
77020
76946
76898
76875
76882
76874
76873
76884
76913
76913
76950
76960
76967
76953
76969
76970
77015
76981
76991
77014
77015
77008
77028
77029
77048
77070
77078
77027
76916
76842
76815
76803
76804
76781
76796
76815
76840
76839
76875
76867
76896
76886
76892
76886
76894
76905
76931
76937
76919
76940
76960
76960
76963
76976
76972
76995
77005
76990
76925
76845
76779
76752
76745
76719
76730
76737
76755
76783
76787
76790
76817
76827
76801
76821
76834
76851
76850
76855
76875
76852
76875
76875
76912
76916
76927
76947
76933
76949
76984
76959
76978
77005
76923
76820
76761
76749
76732
76748
76744
76754
76773
76823
76848
76830
76856
76823
76824
76844
76850
76870
76883
76901
76887
76902
76912
76924
76922
76942
76955
76945
76985
77007
76953
76871
76805
76757
76745
76729
76734
76730
76766
76799
76801
76835
76853
76859
76837
76838
76872
76876
76888
76882
76897
76917
76920
76931
76947
76957
76988
76989
76978
76885
76811
76743
76738
76728
76721
76725
76727
76747
76752
76773
76787
76777
76802
76807
76804
76830
76822
76834
76854
76851
76873
76896
76870
76918
76908
76918
76939
76945
76906
76845
76752
76676
76690
76672
76662
76668
76691
76669
76707
76716
76725
76733
76729
76718
76736
76750
76730
76779
76776
76783
76798
76803
76812
76843
76841
76836
76849
76853
76867
76879
76889
76890
76909
76903
76927
76928
76931
76970
76957
76946
76980
76982
77013
77018
77018
77042
76964
76866
76778
76741
76736
76726
76734
76753
76779
76806
76809
76828
76857
76839
76858
76839
76855
76865
76852
76868
76903
76904
76912
76916
76924
76939
76949
76957
76964
76981
77000
77017
77028
77023
77056
77061
77048
76967
76896
76822
76840
76820
76827
76829
76855
76888
76882
76914
76946
76943
76942
76940
76955
76963
76977
77006
76989
77013
77025
77028
77028
77061
77071
77064
77076
77095
77104
77086
77005
76923
76871
76829
76820
76824
76837
76832
76809
76851
76868
76883
76887
76915
76899
76906
76913
76924
76926
76930
76945
76950
76958
76958
76970
76962
76987
77002
77004
76950
76875
76773
76743
76712
76691
76681
76666
76669
76674
76685
76702
76712
76732
76738
76749
76762
76766
76766
76777
76786
76787
76786
76805
76823
76843
76825
76859
76865
76863
76825
76726
76676
76647
76632
76623
76631
76645
76653
76688
76712
76711
76719
76718
76748
76737
76744
76775
76791
76790
76792
76800
76822
76826
76842
76839
76857
76879
76879
76842
76757
76696
76656
76619
76622
76613
76636
76628
76672
76678
76683
76681
76667
76691
76667
76690
76675
76677
76689
76691
76686
76680
76685
76688
76680
76685
76687
76699
76637
76544
76487
76427
76400
76389
76384
76389
76377
76372
76385
76400
76397
76393
76375
76356
76370
76364
76376
76371
76393
76410
76446
76449
76513
76547
76571
76569
76584
76605
76574
76508
76432
76399
76394
76371
76365
76389
76398
76409
76449
76476
76508
76498
76513
76516
76524
76522
76556
76553
76567
76570
76589
76602
76615
76623
76632
76668
76700
76702
76722
76720
76746
76771
76787
76804
76815
76847
76820
76779
76681
76626
76608
76593
76608
76610
76603
76609
76632
76636
76634
76633
76642
76655
76631
76639
76648
76657
76659
76667
76659
76656
76622
76606
76562
76562
76588
76561
76583
76574
76598
76584
76604
76599
76551
76472
76407
76379
76361
76361
76359
76369
76394
76363
76395
76383
76369
76399
76381
76375
76382
76396
76426
76437
76450
76483
76490
76526
76535
76550
76544
76597
76602
76595
76572
76499
76444
76402
76377
76375
76378
76388
76387
76397
76419
76466
76456
76477
76484
76491
76503
76514
76528
76536
76535
76548
76559
76561
76572
76565
76575
76602
76608
76639
76600
76514
76476
76464
76450
76463
76494
76484
76499
76526
76532
76577
76575
76595
76584
76591
76600
76609
76629
76627
76635
76640
76655
76659
76678
76661
76704
76701
76713
76738
76728
76717
76645
76569
76528
76528
76528
76522
76545
76561
76557
76606
76614
76635
76642
76637
76642
76657
76695
76695
76728
76743
76763
76766
76773
76792
76794
76812
76827
76837
76845
76881
76863
76766
76685
76619
76619
76615
76640
76656
76652
76674
76717
76728
76725
76739
76746
76738
76756
76751
76780
76786
76798
76814
76815
76830
76853
76856
76872
76873
76905
76894
76890
76815
76720
76704
76677
76642
76649
76665
76673
76697
76715
76725
76759
76771
76776
76782
76783
76792
76803
76804
76818
76820
76828
76842
76861
76879
76886
76882
76887
76901
76917
76948
76920
76854
76774
76722
76697
76697
76707
76678
76693
76719
76742
76760
76771
76793
76792
76788
76786
76800
76801
76824
76857
76849
76843
76852
76884
76890
76897
76914
76922
76939
76945
76944
76973
76949
76887
76810
76763
76734
76721
76741
76743
76761
76782
76805
76834
76835
76849
76860
76865
76865
76879
76885
76895
76904
76928
76935
76948
76960
76954
76976
76988
77001
77034
77002
76928
76850
76810
76789
76790
76778
76795
76796
76793
76834
76846
76865
76880
76880
76876
76893
76895
76904
76908
76930
76933
76962
76948
76938
76961
76991
77005
77019
77017
76965
76883
76823
76802
76759
76767
76766
76737
76772
76784
76805
76827
76850
76836
76875
76851
76848
76870
76885
76885
76901
76914
76905
76936
76942
76951
76949
76978
76978
76988
77007
77026
76981
76923
76838
76776
76761
76759
76755
76754
76766
76783
76812
76822
76847
76846
76843
76848
76842
76862
76864
76866
76869
76869
76877
76908
76910
76911
76919
76941
76964
76954
76978
76999
76992
77016
77011
76957
76887
76832
76789
76784
76763
76766
76793
76804
76833
76852
76857
76862
76896
76885
76888
76875
76893
76902
76916
76918
76946
76952
76953
76971
76975
77009
77000
76999
77033
77036
76999
76926
76876
76810
76821
76799
76800
76808
76807
76834
76857
76876
76889
76889
76903
76890
76911
76925
76941
76941
76942
76964
76986
76978
76977
76987
77013
77017
77020
76974
76930
76860
76829
76782
76782
76792
76807
76788
76820
76845
76865
76885
76901
76903
76926
76947
76961
76977
76995
77018
77022
77063
77078
77099
77112
77121
77131
77133
77154
77107
77008
76959
76911
76876
76844
76777
76750
76712
76701
76722
76718
76750
76807
76829
76844
76867
76897
76930
76974
76993
77008
76969
76913
76867
76822
76786
76744
76709
76700
76701
76697
76674
76695
76656
76592
76527
76435
76384
76378
76379
76376
76398
76381
76374
76383
76381
76363
76378
76365
76383
76374
76375
76369
76340
76345
76394
76451
76509
76532
76558
76566
76596
76615
76640
76663
76643
76572
76520
76456
76428
76422
76418
76434
76434
76445
76487
76498
76524
76537
76545
76563
76544
76564
76574
76577
76581
76601
76600
76622
76635
76657
76663
76678
76668
76573
76533
76474
76448
76435
76446
76461
76465
76487
76513
76535
76556
76564
76579
76569
76583
76578
76608
76620
76629
76649
76673
76666
76684
76698
76720
76741
76683
76626
76559
76534
76529
76513
76513
76536
76532
76577
76604
76628
76621
76657
76643
76655
76655
76666
76700
76709
76722
76745
76753
76751
76766
76776
76784
76809
76822
76813
76745
76682
76628
76604
76605
76628
76603
76637
76653
76679
76682
76709
76722
76747
76746
76730
76740
76749
76753
76793
76797
76818
76806
76830
76848
76837
76873
76878
76881
76900
76902
76874
76816
76723
76677
76651
76651
76631
76661
76663
76670
76679
76694
76723
76721
76727
76750
76735
76759
76771
76768
76758
76774
76763
76815
76811
76805
76827
76830
76827
76831
76840
76876
76883
76894
76879
76857
76769
76697
76657
76644
76623
76641
76625
76663
76653
76677
76700
76725
76712
76719
76738
76717
76727
76722
76743
76746
76746
76761
76766
76764
76790
76792
76807
76803
76841
76822
76828
76873
76892
76804
76735
76667
76619
76624
76606
76624
76630
76639
76644
76682
76709
76725
76728
76711
76730
76740
76737
76750
76756
76777
76758
76774
76798
76823
76799
76813
76841
76837
76843
76837
76802
76729
76640
76603
76611
76583
76595
76611
76613
76623
76655
76687
76697
76684
76716
76710
76705
76700
76706
76723
76706
76724
76728
76755
76765
76767
76800
76792
76810
76814
76801
76706
76633
76587
76573
76529
76531
76543
76567
76553
76577
76599
76613
76632
76640
76635
76650
76641
76678
76675
76696
76695
76703
76707
76720
76726
76746
76757
76772
76762
76790
76790
76769
76715
76639
76579
76563
76537
76523
76543
76552
76556
76588
76622
76621
76654
76650
76655
76655
76669
76666
76678
76696
76713
76704
76709
76732
76741
76760
76765
76774
76785
76809
76810
76832
76837
76771
76693
76635
76595
76580
76605
76599
76620
76636
76659
76702
76703
76713
76722
76753
76708
76738
76757
76779
76779
76791
76807
76822
76833
76831
76841
76868
76880
76881
76910
76880
76806
76747
76670
76645
76634
76645
76646
76667
76687
76697
76728
76752
76757
76766
76761
76758
76780
76782
76795
76805
76817
76815
76815
76843
76849
76864
76861
76872
76873
76864
76854
76751
76669
76625
76632
76602
76598
76600
76610
76633
76639
76669
76698
76706
76709
76691
76721
76720
76720
76715
76733
76734
76760
76765
76768
76779
76772
76785
76796
76808
76807
76799
76753
76677
76604
76542
76559
76519
76508
76527
76539
76574
76589
76609
76612
76625
76608
76627
76613
76627
76626
76652
76664
76663
76662
76676
76696
76676
76712
76717
76726
76736
76763
76754
76753
76689
76585
76534
76504
76484
76479
76482
76506
76518
76554
76573
76583
76606
76601
76591
76589
76620
76613
76629
76644
76678
76662
76666
76685
76689
76701
76710
76724
76741
76748
76694
76599
76521
76479
76444
76436
76428
76449
76464
76481
76491
76507
76551
76547
76554
76565
76557
76566
76566
76585
76603
76592
76598
76629
76624
76638
76648
76671
76667
76689
76697
76640
76557
76476
76436
76420
76403
76392
76421
76436
76435
76477
76490
76512
76520
76536
76542
76546
76571
76566
76580
76572
76581
76621
76607
76604
76621
76630
76661
76659
76675
76694
76690
76699
76679
76606
76542
76486
76451
76432
76438
76443
76440
76476
76505
76519
76540
76564
76560
76581
76571
76581
76580
76598
76611
76616
76633
76629
76660
76652
76688
76700
76714
76734
76726
76741
76758
76784
76711
76634
76558
76529
76492
76511
76519
76534
76544
76571
76606
76631
76641
76657
76660
76666
76679
76683
76696
76706
76721
76721
76727
76746
76778
76759
76782
76793
76805
76805
76751
76698
76623
76556
76525
76527
76525
76534
76562
76570
76597
76629
76645
76667
76666
76677
76668
76669
76664
76683
76691
76694
76727
76736
76750
76745
76768
76770
76790
76785
76787
76700
76619
76543
76496
76488
76487
76488
76496
76506
76525
76537
76586
76568
76590
76598
76617
76596
76616
76604
76627
76624
76646
76649
76671
76664
76666
76684
76684
76698
76702
76707
76703
76638
76551
76461
76436
76419
76399
76405
76417
76441
76462
76481
76505
76530
76522
76530
76520
76522
76545
76534
76544
76553
76563
76576
76581
76627
76613
76630
76626
76651
76649
76644
76665
76676
76639
76559
76467
76429
76407
76403
76389
76419
76440
76458
76488
76496
76522
76547
76545
76525
76552
76552
76551
76570
76581
76605
76596
76614
76622
76645
76657
76661
76672
76694
76681
76675
76590
76509
76447
76413
76406
76400
76406
76415
76433
76479
76476
76527
76532
76550
76534
76554
76566
76569
76582
76577
76606
76595
76611
76618
76633
76660
76679
76673
76683
76684
76684
76604
76522
76468
76416
76395
76409
76406
76411
76456
76447
76490
76504
76533
76531
76523
76546
76567
76556
76567
76579
76574
76590
76579
76615
76604
76627
76656
76635
76649
76703
76681
76703
76713
76653
76554
76486
76423
76405
76403
76413
76407
76418
76451
76467
76489
76529
76522
76536
76517
76538
76536
76532
76543
76551
76566
76596
76585
76622
76632
76659
76683
76702
76708
76724
76741
76768
76779
76768
76762
76705
76609
76548
76521
76513
76539
76547
76536
76564
76591
76630
76648
76666
76663
76659
76681
76690
76689
76679
76687
76718
76709
76726
76747
76765
76768
76784
76798
76815
76807
76835
76838
76801
76709
76599
76559
76525
76500
76515
76498
76529
76543
76551
76578
76616
76619
76626
76633
76645
76644
76648
76653
76653
76659
76681
76662
76669
76687
76702
76707
76730
76714
76726
76749
76728
76634
76540
76473
76431
76400
76404
76386
76390
76413
76429
76443
76456
76492
76505
76511
76525
76502
76493
76502
76514
76511
76517
76530
76534
76538
76532
76574
76566
76576
76577
76589
76602
76608
76602
76586
76507
76401
76358
76308
76294
76282
76296
76324
76334
76377
76410
76416
76437
76464
76444
76434
76458
76467
76460
76459
76488
76485
76494
76523
76524
76541
76546
76573
76589
76596
76621
76652
76646
76643
76598
76501
76414
76383
76383
76362
76383
76398
76411
76438
76468
76504
76549
76541
76549
76549
76559
76558
76551
76569
76568
76595
76624
76602
76632
76636
76661
76663
76682
76688
76698
76698
76654
76571
76457
76436
76398
76385
76376
76392
76400
76422
76461
76470
76504
76507
76508
76527
76523
76535
76526
76535
76553
76571
76560
76566
76586
76604
76599
76601
76630
76638
76629
76628
76640
76574
76474
76393
76359
76340
76329
76339
76321
76343
76355
76374
76375
76396
76437
76421
76434
76412
76431
76417
76435
76457
76441
76463
76463
76471
76486
76482
76487
76496
76507
76509
76524
76515
76531
76406
76354
76279
76242
76243
76245
76245
76270
76281
76311
76341
76348
76381
76376
76394
76381
76394
76385
76398
76418
76415
76438
76462
76476
76490
76518
76494
76518
76531
76547
76573
76566
76523
76429
76350
76311
76266
76285
76282
76286
76319
76340
76353
76381
76428
76423
76416
76434
76430
76421
76443
76441
76456
76484
76459
76494
76512
76517
76523
76524
76543
76548
76568
76549
76479
76390
76310
76260
76259
76253
76255
76267
76293
76317
76350
76365
76372
76389
76376
76388
76415
76389
76414
76428
76434
76424
76469
76469
76482
76502
76505
76525
76533
76549
76538
76555
76569
76525
76438
76335
76262
76242
76214
76222
76241
76229
76268
76297
76300
76345
76354
76358
76360
76374
76357
76357
76386
76368
76380
76392
76386
76403
76428
76435
76431
76454
76455
76466
76474
76496
76494
76508
76513
76504
76457
76359
76276
76225
76210
76224
76230
76238
76239
76283
76312
76351
76374
76367
76386
76366
76377
76395
76404
76375
76422
76420
76449
76452
76471
76478
76485
76508
76511
76537
76543
76589
76592
76590
76510
76419
76347
76302
76278
76298
76278
76320
76319
76360
76386
76394
