77137
77155
77152
77152
77141
77089
77031
76978
76969
76913
76916
76925
76936
76936
76955
76972
76952
76954
76946
76941
76932
76964
76967
76981
77015
76962
76860
76779
76760
76762
76768
76783
76785
76814
76863
76877
76883
76890
76879
76887
76906
76906
76941
76948
76960
76978
76963
76870
76805
76780
76773
76770
76812
76836
76888
76931
76942
76946
76964
76956
76988
76982
77002
76995
77018
77064
77101
77128
77140
77144
77115
77097
77073
77056
77078
77077
77115
77143
77177
77166
77166
77165
77154
77157
77162
77167
77155
77136
77134
77094
77019
76956
76906
76901
76932
76937
76983
76992
77045
77060
77062
77072
77038
77041
77044
77067
77078
77075
77105
77124
77090
77096
77018
76957
76917
76895
76898
76896
76873
76877
76825
76840
76877
76867
76844
76813
76819
76758
76772
76754
76749
76761
76765
76708
76655
76632
76619
76630
76673
76689
76744
76755
76794
76807
76830
76843
76861
76880
76882
76896
76921
76944
76977
76989
76916
76849
76790
76782
76746
76775
76798
76807
76856
76872
76915
76894
76926
76898
76928
76903
76951
76932
76973
76994
76986
76964
76897
76816
76751
76766
76774
76800
76804
76837
76837
76860
76837
76865
76880
76876
76848
76838
76847
76830
76821
76828
76844
76861
76801
76734
76721
76696
76696
76734
76758
76781
76821
76827
76858
76863
76860
76870
76879
76875
76879
76901
76916
76934
76936
76924
76870
76790
76741
76750
76742
76750
76777
76799
76801
76820
76842
76842
76831
76839
76836
76830
76832
76835
76843
76842
76827
76770
76689
76624
76581
76533
76497
76505
76508
76501
76511
76509
76533
76529
76560
76569
76607
76622
76660
76696
76723
76731
76753
76682
76606
76589
76561
76562
76571
76595
76635
76649
76672
76678
76690
76682
76711
76698
76718
76733
76736
76739
76757
76755
76721
76617
76568
76554
76533
76517
76532
76552
76558
76599
76598
76605
76612
76605
76594
76597
76610
76599
76602
76615
76669
76648
76643
76596
76524
76540
76558
76565
76576
76608
76649
76669
76719
76736
76744
76774
76770
76768
76790
76793
76782
76821
76828
76856
76841
76809
76749
76684
76641
76634
76672
76684
76692
76736
76751
76755
76777
76777
76754
76761
76777
76789
76797
76786
76793
76799
76818
76804
76716
76597
76546
76478
76461
76463
76465
76482
76488
76466
76467
76445
76408
76379
76359
76361
76394
76406
76485
76534
76579
76583
76546
76463
76441
76421
76413
76424
76452
76492
76527
76527
76568
76595
76587
76598
76619
76627
76652
76663
76671
76700
76732
76752
76717
76637
76600
76548
76539
76550
76574
76595
76624
76671
76689
76715
76734
76735
76759
76779
76770
76804
76801
76807
76801
76834
76831
76804
76730
76667
76640
76646
76665
76686
76694
76708
76732
76755
76794
76777
76786
76790
76827
76818
76829
76832
76838
76848
76905
76918
76883
76815
76757
76682
76678
76687
76681
76718
76749
76758
76800
76811
76823
76808
76791
76822
76829
76822
76856
76846
76865
76887
76912
76913
76878
76803
76739
76718
76726
76733
76718
76751
76782
76805
76803
76802
76837
76847
76841
76850
76847
76856
76875
76867
76888
76924
76959
76912
76761
76648
76600
76571
76571
76571
76586
76622
76652
76654
76681
76704
76703
76726
76758
76756
76785
76771
76833
76837
76840
76841
76775
76710
76661
76620
76632
76648
76675
76706
76724
76750
76790
76796
76777
76789
76813
76808
76825
76835
76834
76868
76911
76937
76914
76848
76763
76723
76725
76726
76757
76783
76829
76875
76884
76927
76933
76919
76934
76950
76956
76961
76981
76981
76974
76980
77005
76992
76930
76869
76795
76783
76779
76773
76754
76749
76787
76796
76816
76815
76827
76815
76835
76815
76827
76820
76840
76838
76848
76871
76871
76862
76809
76732
76666
76635
76633
76652
76679
76702
76732
76738
76764
76770
76788
76768
76765
76770
76778
76800
76809
76816
76827
76842
76819
76804
76688
76595
76544
76512
76510
76486
76492
76498
76481
76514
76509
76498
76518
76507
76518
76521
76542
76566
76579
76599
76633
76634
76623
76513
76438
76394
76391
76401
76428
76439
76478
76498
76521
76542
76538
76554
76564
76560
76586
76587
76605
76618
76632
76682
76721
76699
76628
76533
76498
76464
76483
76499
76509
76569
76590
76640
76682
76708
76708
76704
76711
76727
76747
76750
76752
76794
76789
76810
76811
76791
76707
76623
76557
76563
76552
76555
76578
76615
76637
76641
76660
76689
76696
76698
76719
76700
76699
76719
76725
76728
76752
76767
76794
76772
76684
76617
76579
76543
76557
76587
76594
76610
76640
76660
76680
76681
76702
76701
76677
76693
76710
76714
76714
76716
76734
76745
76753
76738
76667
76574
76532
76496
76423
76404
76416
76417
76441
76450
76453
76453
76441
76437
76459
76463
76478
76473
76466
76487
76492
76496
76475
76395
76332
76299
76277
76301
76286
76323
76340
76382
76386
76426
76428
76438
76436
76476
76472
76478
76495
76534
76548
76548
76593
76617
76557
76460
76393
76381
76400
76401
76436
76504
76546
76586
76600
76626
76639
76645
76645
76649
76661
76675
76679
76677
76688
76702
76699
76686
76640
76544
76475
76448
76479
76493
76505
76511
76532
76534
76553
76563
76554
76558
76568
76601
76592
76603
76613
76639
76634
76643
76636
76623
76622
76557
76471
76428
76427
76396
76409
76433
76456
76483
76499
76531
76525
76537
76502
76542
76547
76540
76554
76563
76594
76594
76609
76606
76653
76606
76532
76435
76391
76376
76378
76389
76419
76444
76453
76463
76493
76513
76510
76516
76525
76553
76561
76585
76587
76595
76575
76588
76576
76520
76380
76269
76232
76224
76226
76244
76252
76285
76293
76327
76375
76390
76394
76373
76391
76387
76396
76429
76435
76461
76481
76465
76477
76430
76322
76261
76251
76251
76279
76280
76318
76318
76382
76375
76403
76386
76419
76415
76420
76417
76454
76443
76464
76473
76489
76510
76546
76508
76419
76340
76311
76293
76305
76266
76272
76284
76276
76274
76287
76291
76282
76282
76300
76293
76271
76281
76266
76271
76286
76311
76334
76359
76359
76317
76257
76257
76285
76313
76389
76486
76549
76550
76564
76597
76598
76611
76581
76619
76621
76623
76648
76650
76649
76659
76668
76635
76646
76650
76591
76475
76316
76215
76178
76167
76156
76182
76173
76169
76165
76073
75969
75297
73958
73528
73181
72187
71751
71663
71323
71799
72465
72992
73605
74398
75224
75743
76094
76285
76366
76434
76484
76489
76546
76584
76631
76682
76701
76711
76737
76750
76750
76762
76823
76902
76889
76862
77012
77167
77217
77228
77382
77609
77980
78144
77924
77813
77803
77800
77751
77705
77699
77704
77682
77694
77736
77771
77802
77791
77813
77820
77781
77752
77701
77590
77531
77517
77499
77486
77468
77491
77512
77556
77605
77625
77603
77596
77610
77650
77657
77655
77639
77652
77674
77690
77651
77566
77493
77468
77430
77391
77400
77384
77364
77352
77360
77365
77404
77411
77416
77420
77385
77357
77357
77333
77353
77372
77339
77338
77254
77189
77177
77176
77223
77274
77283
77312
77321
77328
77352
77325
77307
77310
77310
77310
77309
77277
77260
77281
77271
77303
77296
77296
77243
77168
77112
77099
77098
77147
77172
77189
77220
77235
77216
77238
77232
77253
77279
77325
77328
77362
77366
77361
77380
77414
77437
77445
77421
77379
77328
77300
77300
77291
77311
77342
77359
77371
77376
77417
77398
77413
77414
77418
77426
77425
77414
77457
77462
77466
77461
77477
77490
77429
77387
77369
77347
77362
77356
77380
77391
77419
77428
77422
77443
77439
77426
77430
77451
77458
77476
77460
77454
77470
77486
77487
77490
77426
77382
77361
77375
77373
77354
77386
77417
77415
77428
77458
77462
77472
77458
77453
77468
77480
77478
77495
77491
77515
77511
77526
77532
77504
77446
77415
77402
77398
77394
77404
77425
77453
77468
77468
77468
77470
77487
77484
77477
77481
77477
77499
77525
77548
77561
77590
77588
77598
77612
77601
77538
77503
77484
77487
77511
77537
77548
77564
77579
77605
77614
77643
77652
77646
77653
77656
77667
77650
77653
77621
77647
77627
77640
77633
77669
77667
77697
77675
77619
77584
77572
77566
77604
77616
77609
77628
77655
77674
77703
77670
77697
77709
77692
77698
77705
77710
77737
77747
77734
77740
77759
77747
77747
77775
77747
77697
77667
77645
77634
77646
77656
77662
77676
77688
77697
77711
77740
77701
77708
77711
77720
77705
77747
77736
77737
77756
77747
77736
77745
77741
77691
77657
77636
77645
77631
77635
77642
77655
77673
77681
77697
77704
77698
77685
77700
77679
77699
77698
77719
77715
77728
77725
77722
77745
77705
77652
77605
77589
77597
77594
77606
77607
77588
77618
77612
77616
77635
77625
77598
77617
77612
77626
77634
77647
77653
77655
77664
77672
77686
77654
77610
77589
77542
77539
77552
77568
77557
77569
77574
77595
77600
77588
77583
77586
77591
77578
77599
77589
77607
77616
77617
77610
77609
77627
77640
77647
77618
77583
77534
77517
77524
77521
77511
77514
77507
77543
77521
77561
77550
77554
77541
77529
77536
77528
77532
77534
77546
77565
77543
77557
77542
77562
77568
77555
77545
77520
77464
77435
77422
77408
77428
77415
77429
77446
77441
77481
77448
77469
77441
77446
77452
77458
77461
77463
77456
77460
77455
77474
77469
77495
77500
77490
77476
77413
77385
77373
77375
77371
77385
77402
77419
77441
77445
77461
77455
77457
77468
77478
77483
77479
77490
77484
77496
77496
77515
77523
77543
77513
77490
77435
77397
77404
77418
77436
77432
77437
77438
77446
77465
77472
77483
77479
77490
77472
77493
77492
77490
77501
77508
77515
77514
77503
77521
77493
77457
77404
77368
77399
77399
77382
77416
77420
77438
77455
77435
77446
77460
77455
77447
77462
77441
77464
77472
77474
77473
77484
77487
77480
77497
77496
77476
77412
77378
77353
77372
77367
77391
77412
77398
77407
77400
77420
77421
77431
77400
77421
77415
77438
77439
77429
77421
77443
77444
77454
77452
77460
77463
77471
77492
77467
77405
77377
77367
77350
77365
77365
77385
77407
77393
77424
77426
77425
77429
77433
77423
77430
77438
77444
77449
77454
77460
77480
77483
77484
77498
77477
77498
77503
77446
77412
77364
77370
77373
77375
77377
77402
77411
77418
77433
77437
77442
77430
77435
77443
77459
77448
77456
77475
77457
77477
77506
77504
77506
77498
77478
77444
77390
77374
77341
77364
77377
77386
77397
77405
77404
77423
77436
77430
77421
77420
77427
77442
77446
77454
77439
77442
77452
77455
77440
77478
77473
77457
77384
77347
77332
77333
77325
77327
77323
77342
77347
77367
77377
77378
77402
77369
77376
77385
77380
77399
77396
77412
77417
77408
77424
77433
77447
77433
77441
77458
77465
77476
77461
77435
77381
77328
77342
77325
77311
77300
77305
77312
77315
77346
77343
77350
77336
77342
77352
77349
77338
77349
77381
77387
77373
77396
77387
77394
77411
77416
77423
77414
77436
77424
77437
77457
77427
77475
77465
77468
77478
77486
77487
77472
77474
77420
77372
77375
77359
77374
77380
77385
77412
77395
77448
77443
77442
77426
77428
77451
77443
77465
77439
77465
77480
77474
77496
77498
77503
77510
77510
77529
77531
77557
77549
77562
77571
77543
77506
77460
77443
77462
77469
77468
77491
77515
77517
77520
77544
77535
77544
77517
77538
77555
77546
77572
77569
77573
77574
77586
77589
77599
77582
77611
77607
77569
77509
77484
77467
77466
77455
77464
77482
77490
77492
77514
77517
77507
77523
77538
77527
77539
77541
77546
77545
77566
77563
77547
77581
77601
77588
77582
77592
77565
77528
77470
77464
77440
77448
77446
77449
77465
77466
77487
77471
77482
77490
77488
77481
77486
77486
77465
77465
77468
77481
77457
77473
77456
77461
77444
77463
77454
77449
77430
77385
77337
77318
77285
77287
77292
77291
77312
77319
77322
77354
77359
77346
77368
77359
77345
77368
77368
77389
77398
77388
77388
77414
77402
77420
77426
77429
77433
77432
77394
77363
77291
77290
77301
77297
77298
77319
77343
77362
77364
77378
77375
77377
77391
77390
77390
77398
77392
77401
77403
77432
77416
77421
77418
77420
77452
77442
77405
77350
77324
77322
77311
77340
77336
77351
77372
77394
77394
77405
77410
77412
77407
77413
77410
77418
77436
77444
77435
77453
77462
77464
77468
77467
77482
77449
77413
77390
77360
77363
77357
77376
77369
77392
77405
77426
77449
77447
77445
77447
77470
77454
77458
77462
77479
77477
77489
77499
77500
77522
77500
77511
77508
77520
77499
77431
77361
77364
77375
77354
77358
77392
77369
77372
77399
77390
77387
77385
77355
77370
77349
77360
77368
77363
77371
77369
77389
77383
77393
77393
77384
77404
77398
77400
77392
77386
77409
77385
77343
77334
77356
77368
77376
77402
77393
77396
77380
77407
77389
77371
77339
77355
77333
77328
77305
77302
77294
77297
77268
77267
77246
77237
77225
77198
77225
77244
77262
77284
77283
77241
77184
77163
77157
77153
77157
77177
77187
77195
77211
77216
77243
77253
77240
77242
77235
77237
77253
77261
77250
77274
77295
77277
77300
77307
77285
77308
77332
77291
77248
77202
77195
77212
77216
77229
77250
77259
77270
77271
77323
77329
77320
77326
77338
77346
77361
77354
77367
77375
77378
77388
77387
77406
77411
77419
77414
77424
77392
77353
77313
77342
77333
77334
77331
77363
77372
77394
77395
77411
77409
77410
77426
77431
77439
77457
77459
77472
77488
77501
77508
77517
77522
77540
77550
77573
77581
77559
77559
77487
77459
77445
77467
77468
77458
77480
77491
77498
77504
77525
77522
77525
77530
77522
77536
77535
77538
77548
77568
77582
77595
77589
77600
77611
77620
77638
77640
77652
77670
77643
77611
77579
77575
77542
77571
77568
77586
77605
77592
77620
77627
77652
77634
77639
77624
77636
77639
77633
77637
77639
77641
77634
77648
77651
77657
77645
77684
77675
77669
77631
77589
77544
77567
77581
77591
77612
77633
77651
77680
77679
77682
77664
77665
77663
77671
77657
77652
77656
77665
77651
77666
77642
77630
77660
77659
77655
77599
77565
77540
77501
77508
77519
77508
77531
77541
77539
77613
77636
77584
77602
77657
77674
77634
77537
77356
77182
76918
75484
73671
72400
71744
71346
71011
70772
70527
70301
70116
70004
69950
69909
69870
69849
69868
69869
69889
69911
69930
69929
69975
70021
70072
70166
70242
70300
70322
70364
70373
70403
70451
70470
70468
70523
70552
70575
70548
70511
70427
70428
70431
70445
70476
70492
70528
70547
70581
70615
70653
70647
70654
70650
70643
70668
70679
70699
70736
70753
70765
70765
70783
70780
70786
70814
70788
70779
70707
70648
70613
70613
70607
70637
70647
70677
70696
70724
70759
70753
70769
70779
70792
70785
70826
70823
70868
70878
70912
70910
70913
70932
70948
70989
70988
70941
70874
70824
70790
70791
70800
70823
70837
70876
70897
70945
70954
70967
70978
70974
70986
71000
71048
71122
71159
71213
71237
71278
71314
71333
71372
71382
71393
71361
71285
71249
71222
71233
71255
71288
71329
71393
71424
71466
71515
71532
71576
71592
71630
71653
71695
71718
71758
71798
71849
71898
71969
71990
72021
72067
72081
72106
72114
72056
72016
72031
72078
72148
72217
72244
72339
72396
72426
72496
72556
72609
72633
72656
72708
72740
72788
72822
72874
72903
72941
72996
72969
72950
72974
72996
72997
73024
73035
73027
73035
72968
72913
72909
72917
72926
72949
72985
73022
73039
73045
73050
73073
73094
73094
73101
73093
73135
73142
73151
73186
73172
73175
73179
73182
73191
73181
73209
73207
73168
73167
73098
73053
73022
73000
73018
73009
73042
73072
73090
73097
73120
73124
73147
73156
73147
73143
73162
73176
73203
73210
73208
73227
73225
73243
73250
73274
73257
73224
73136
73090
73057
73074
73078
73112
73120
73158
73162
73155
73184
73195
73202
73178
73183
73176
73195
73213
73216
73237
73245
73254
73265
73293
73296
73295
73288
73256
73195
73147
73115
73108
73123
73148
73176
73199
73249
73243
73265
73279
73293
73302
73288
73310
73308
73306
73303
73305
73323
73313
73357
73344
73366
73374
73395
73382
73397
73338
73258
73240
73245
73272
73299
73321
73345
73374
73386
73401
73418
73428
73439
73449
73475
73470
73491
73487
73497
73509
73543
73538
73571
73572
73561
73573
73593
73610
73576
73526
73478
73446
73415
73417
73436
73456
73458
73475
73492
73498
73495
73531
73516
73513
73504
73493
73497
73509
73489
73490
73482
73449
73455
73431
73454
73439
73446
73417
73359
73295
73240
73236
73229
73244
73283
73310
73344
73348
73345
73374
73406
73398
73365
73405
73398
73410
73437
73436
73456
73467
73473
73508
73515
73529
73526
73489
73410
73346
73343
73320
73327
73355
73391
73408
73426
73443
73462
73481
73476
73508
73501
73513
73506
73529
73565
73572
73574
73601
73611
73627
73641
73627
73660
73618
73543
73483
73459
73451
73497
73484
73542
73579
73592
73599
73640
73646
73651
73651
73638
73629
73636
73640
73665
73670
73683
73694
73726
73732
73755
73781
73798
73795
73749
73686
73657
73663
73662
73674
73673
73649
73705
73718
73720
73745
73741
73730
73722
73736
73746
73747
73753
73756
73746
73772
73767
73781
73797
73786
73812
73785
73753
73705
73624
73564
73543
73534
73510
73495
73514
73517
73499
73493
73498
73492
73476
73466
73455
73477
73482
73468
73482
73477
73476
73476
73478
73501
73522
73502
73485
73402
73344
73339
73341
73348
73357
73390
73386
73414
73409
73417
73407
73427
73424
73405
73439
73446
73487
73484
73465
73508
73485
73515
73518
73544
73524
73504
73429
73337
73322
73302
73312
73340
73378
73379
73409
73423
73446
73472
73484
73472
73491
73486
73478
73507
73513
73514
73527
73528
73553
73580
73590
73603
73634
73646
73661
73584
73510
73479
73499
73493
73523
73540
73576
73602
73598
73629
73624
73631
73619
73626
73631
73634
73622
73650
73644
73655
73654
73638
73642
73650
73652
73643
73635
73661
73636
73575
73501
73459
73483
73499
73497
73525
73535
73569
73579
73585
73583
73566
73564
73570
73545
73538
73521
73515
73525
73511
73508
73497
73480
73490
73508
73526
73528
73473
73423
73344
73319
73296
73308
73310
73335
73362
73373
73377
73366
73385
73400
73396
73387
73377
73386
73398
73404
73429
73425
73442
73452
73467
73481
73494
73492
73495
73450
73373
73331
73318
73315
73344
73346
73367
73395
73400
73412
73436
73463
73463
73456
73482
73469
73509
73505
73518
73536
73536
73540
73552
73559
73592
73597
73577
73567
73514
73428
73377
73396
73387
73409
73425
73429
73476
73499
73510
73540
73547
73560
73574
73573
73587
73578
73630
73620
73627
73669
73676
73688
73685
73690
73705
73701
73726
73689
73660
73572
73559
73563
73534
73568
73579
73599
73603
73620
73621
73636
73653
73647
73649
73657
73663
73657
73671
73671
73690
73696
73707
73692
73716
73718
73714
73723
73691
73649
73581
73508
73469
73443
73434
73429
73433
73482
73488
73484
73510
73517
73530
73526
73506
73475
73478
73492
73475
73487
73503
73503
73528
73539
73541
73567
73556
73540
73476
73402
73392
73391
73392
73420
73418
73438
73474
73461
73482
73513
73511
73511
73535
73528
73542
73533
73555
73578
73575
73582
73585
73613
73633
73635
73623
73591
73530
73471
73453
73464
73473
73497
73526
73547
73564
73581
73622
73617
73622
73647
73626
73655
73638
73652
73666
73667
73673
73693
73710
73730
73745
73759
73762
73768
73743
73681
73611
73597
73608
73619
73649
73690
73715
73722
73743
73763
73774
73776
73791
73771
73789
73811
73795
73831
73856
73861
73876
73911
73904
73929
73935
73957
73965
73930
73873
73804
73765
73757
73767
73803
73824
73866
73870
73889
73919
73921
73931
73922
73930
73925
73913
73923
73913
73936
73938
73938
73974
73960
73955
73968
73975
73972
73946
73896
73814
73757
73753
73739
73733
73735
73766
73773
73784
73798
73796
73819
73804
73802
73793
73792
73793
73802
73805
73792
73822
73797
73785
73780
73804
73772
73713
73639
73600
73569
73560
73563
73575
73595
73621
73613
73639
73647
73656
73658
73683
73667
73665
73667
73662
73688
73664
73680
73700
73706
73721
73714
73705
73656
73556
73524
73501
73531
73532
73528
73559
73575
73587
73607
73617
73617
73614
73611
73603
73618
73637
73651
73644
73671
73655
73663
73672
73692
73708
73709
73708
73660
73601
73564
73525
73505
73526
73545
73563
73576
73612
73631
73652
73664
73639
73617
73635
73607
73638
73669
73661
73682
73687
73698
73691
73728
73740
73757
73771
73779
73773
73723
73630
73592
73597
73615
73640
73657
73651
73677
73702
73716
73724
73750
73724
73735
73714
73743
73755
73757
73757
73762
73798
73808
73803
73824
73819
73813
73850
73830
73804
73735
73665
73651
73637
73653
73651
73665
73683
73702
73719
73725
73731
73729
73728
73721
73704
73722
73731
73736
73753
73742
73747
73767
73772
73774
73801
73796
73741
73680
73599
73577
73559
73557
73571
73598
73627
73630
73654
73661
73656
73665
73636
73658
73654
73669
73663
73689
73679
73686
73691
73705
73702
73714
73713
73681
73598
73537
73509
73513
73536
73542
73555
73589
73586
73597
73624
73638
73659
73656
73646
73652
73654
73650
73659
73673
73689
73684
73705
73702
73711
73703
73673
73608
73522
73528
73508
73534
73557
73576
73600
73605
73618
73645
73646
73659
73679
73660
73654
73670
73685
73688
73681
73683
73683
73679
73700
73709
73721
73714
73690
73610
73560
73531
73521
73539
73563
73573
73600
73641
73661
73670
73694
73702
73707
73710
73714
73733
73735
73780
73779
73797
73806
73829
73834
73863
73851
73868
73856
73828
73748
73687
73672
73696
73694
73704
73704
73741
73747
73778
73779
73790
73793
73790
73793
73786
73801
73810
73818
73843
73822
73847
73841
73855
73865
73885
73855
73809
73714
73664
73638
73647
73639
73654
73662
73693
73711
73720
73736
73726
73716
73704
73689
73710
73715
73715
73709
73736
73720
73732
73740
73732
73754
73747
73695
73609
73556
73540
73540
73531
73557
73566
73564
73605
73624
73639
73653
73658
73639
73649
73648
73657
73660
73693
73669
73681
73705
73700
73730
73709
73708
73674
73563
73517
73523
73522
73528
73523
73559
73592
73603
73609
73638
73637
73629
73660
73641
73636
73657
73655
73682
73695
73702
73711
73742
73737
73763
73790
73789
73789
73732
73644
73591
73580
73595
73611
73623
73637
73652
73654
73670
73691
73689
73671
73702
73688
73693
73697
73729
73764
73749
73772
73792
73809
73826
73845
73832
73855
73874
73890
73907
73868
73804
73739
