79974
79977
79971
80002
80014
80000
79994
80013
80008
80042
80030
80045
80053
80057
80049
80069
80060
80085
80077
80088
80096
80104
80102
80098
80136
80102
80114
80134
80117
80124
80151
80157
80101
80018
79916
79866
79822
79819
79794
79798
79822
79812
79811
79837
79846
79854
79867
79874
79884
79867
79847
79875
79880
79857
79891
79924
79922
79932
79933
79956
79953
79975
79999
79993
80000
80005
80020
80037
80022
80049
80056
80069
80067
80080
80079
80100
80096
80108
80129
80152
80134
80124
80041
79967
79924
79866
79839
79840
79825
79844
79845
79871
79874
79894
79923
79907
79919
79922
79929
79909
79927
79935
79922
79948
79956
79956
79960
79977
79983
79984
80002
80017
80034
80023
80024
80062
80062
80060
80092
80082
80089
80114
80141
80082
79991
79927
79839
79824
79811
79815
79828
79846
79827
79862
79864
79893
79889
79896
79904
79920
79899
79895
79917
79933
79899
79939
79956
79961
79946
79977
79975
80017
80006
80021
80036
80026
80068
80061
80077
80082
80087
80092
80024
79932
79837
79817
79778
79770
79779
79782
79796
79811
79802
79842
79824
79873
79856
79858
79848
79842
79855
79865
79888
79892
79861
79895
79908
79922
79940
79936
79964
79980
79975
79983
79981
80013
80022
80011
80032
80031
80034
80046
80056
80019
79941
79844
79758
79721
79709
79716
79705
79720
79711
79732
79750
79774
79775
79807
79791
79774
79792
79794
79810
79809
79813
79836
79843
79861
79866
79887
79874
79910
79906
79918
79941
79963
79966
79979
79973
80018
80025
80052
80056
80047
80055
80079
80091
80099
80120
80130
80128
80142
80148
80159
80167
80136
80031
79916
79867
79822
79813
79807
79810
79810
79825
79827
79812
79835
79836
79840
79847
79825
79826
79832
79827
79821
79818
79814
79830
79830
79845
79837
79844
79874
79872
79884
79880
79887
79888
79900
79934
79953
79936
79963
79964
79981
79980
79990
80016
80013
80031
80039
80050
80037
80072
80031
79963
79884
79839
79785
79773
79763
79767
79800
79798
79831
79806
79823
79857
79846
79850
79860
79839
79859
79856
79859
79853
79885
79886
79896
79909
79913
79920
79936
79956
79966
79967
79960
79987
79990
80006
80021
80039
80051
80047
80083
80081
80054
80014
79935
79851
79810
79783
79773
79774
79800
79829
79818
79842
79840
79871
79867
79878
79863
79865
79858
79847
79858
79852
79862
79884
79885
79888
79887
79899
79915
79937
79931
79946
79941
79962
79962
79958
79969
79982
79935
79821
79739
79696
79665
79643
79681
79667
79689
79668
79685
79691
79676
79691
79690
79689
79651
79645
79676
79650
79664
79663
79652
79674
79685
79672
79668
79672
79675
79684
79675
79677
79695
79688
79720
79698
79707
79708
79647
79551
79475
79442
79409
79411
79403
79391
79394
79407
79410
79410
79446
79428
79439
79455
79417
79440
79432
79439
79446
79457
79490
79473
79499
79486
79506
79507
79497
79524
79537
79543
79572
79567
79573
79602
79588
79618
79613
79621
79647
79647
79658
79688
79690
79696
79731
79721
79722
79731
79683
79619
79517
79450
79435
79410
79420
79409
79426
79445
79456
79457
79472
79487
79518
79501
79502
79494
79488
79535
79531
79531
79545
79565
79557
79565
79565
79581
79582
79613
79621
79631
79638
79659
79668
79670
79692
79706
79715
79726
79738
79761
79779
79781
79797
79799
79804
79818
79830
79860
79868
79883
79830
79779
79700
79629
79616
79604
79605
79613
79604
79624
79652
79643
79646
79659
79683
79677
79698
79681
79684
79663
79684
79671
79675
79707
79705
79718
79723
79727
79726
79756
79758
79757
79766
79776
79802
79782
79816
79826
79820
79839
79825
79823
79862
79882
79871
79878
79883
79908
79873
79836
79745
79693
79661
79656
79648
79676
79678
79676
79688
79710
79718
79726
79728
79725
79733
79730
79738
79736
79736
79737
79766
79755
79756
79757
79776
79776
79783
79805
79794
79808
79804
79803
79836
79840
79824
79841
79860
79876
79856
79794
79727
79669
79622
79631
79624
79629
79645
79658
79663
79673
79648
79676
79662
79685
79678
79653
79668
79662
79670
79673
79679
79702
79720
79688
79711
79712
79714
79698
79720
79733
79745
79761
79735
79767
79726
79667
79598
79537
79518
79509
79494
79503
79510
79503
79514
79533
79527
79535
79549
79535
79501
79532
79528
79518
79514
79534
79531
79536
79539
79579
79559
79538
79550
79566
79563
79560
79588
79595
79615
79599
79573
79508
79416
79362
79338
79352
79339
79340
79348
79352
79335
79345
79358
79373
79371
79356
79360
79338
79344
79352
79364
79372
79375
79364
79392
79383
79390
79397
79409
79403
79423
79433
79447
79461
79457
79483
79490
79499
79501
79503
79509
79517
79531
79566
79540
79555
79562
79581
79613
79597
79597
79605
79557
79444
79378
79343
79292
79283
79270
79280
79304
79295
79314
79328
79329
79331
79345
79337
79365
79358
79330
79339
79359
79362
79358
79371
79389
79386
79392
79384
79408
79401
79430
79420
79428
79438
79443
79440
79474
79480
79487
79489
79476
79509
79512
79527
79518
79526
79529
79543
79533
79525
79543
79567
79554
79513
79425
79344
79303
79298
79285
79272
79281
79291
79306
79302
79315
79337
79336
79334
79346
79332
79328
79337
79339
79357
79331
79336
79353
79364
79363
79360
79344
79348
79351
79384
79372
79378
79401
79403
79428
79439
79457
79478
79495
79515
79531
79516
79553
79541
79560
79570
79576
79561
79536
79474
79411
79372
79335
79339
79329
79339
79364
79365
79378
79389
79385
79395
79426
79410
79413
79399
79409
79409
79422
79441
79434
79450
79459
79460
79469
79477
79502
79507
79503
79501
79527
79548
79542
79549
79553
79561
79583
79567
79571
79524
79454
79395
79366
79342
79361
79367
79394
79391
79379
79403
79430
79451
79435
79449
79423
79428
79417
79430
79443
79442
79481
79469
79482
79496
79478
79491
79503
79516
79522
79527
79531
79540
79563
79521
79475
79389
79334
79296
79290
79308
79313
79311
79331
79334
79350
79344
79359
79361
79375
79353
79350
79352
79354
79366
79369
79378
79393
79405
79398
79411
79401
79422
79438
79437
79454
79461
79482
79495
79402
79316
79266
79235
79219
79231
79217
79237
79240
79231
79239
79265
79259
79296
79267
79252
79250
79254
79242
79239
79279
79274
79290
79302
79304
79304
79319
79299
79332
79331
79350
79343
79369
79370
79382
79378
79394
79408
79414
79425
79418
79448
79463
79450
79458
79462
79502
79452
79494
79494
79486
79384
79312
79255
79197
79190
79188
79187
79182
79196
79197
79226
79216
79236
79232
79246
79252
79234
79252
79238
79252
79244
79259
79245
79245
79266
79271
79268
79276
79313
79285
79318
79294
79320
79331
79346
79356
79374
79380
79374
79384
79407
79386
79398
79422
79425
79428
79439
79472
79434
79437
79377
79286
79232
79202
79170
79153
79146
79158
79156
79195
79183
79196
79207
79221
79231
79234
79222
79231
79228
79234
79231
79252
79254
79281
79291
79296
79306
79328
79326
79324
79344
79353
79360
79378
79393
79383
79386
79383
79385
79415
79429
79422
79424
79436
79439
79454
79459
79432
79409
79319
79266
79214
79208
79214
79213
79226
79214
79235
79237
79279
79274
79293
79269
79268
79262
79263
79268
79246
79267
79271
79280
79276
79287
79299
79306
79315
79320
79323
79337
79367
79348
79368
79378
79392
79372
79405
79421
79384
79297
79232
79175
79144
79149
79148
79153
79172
79190
79180
79192
79208
79209
79217
79222
79237
79227
79202
79213
79204
79224
79232
79237
79229
79241
79263
79257
79277
79282
79288
79293
79297
79312
79292
79249
79164
79085
79021
79000
79000
79023
79018
79041
79039
79039
79052
79082
79072
79072
79058
79062
79070
79064
79068
79077
79092
79119
79104
79091
79115
79125
79121
79144
79151
79159
79174
79165
79186
79125
79030
78928
78846
78825
78821
78819
78820
78812
78834
78829
78846
78860
78885
78883
78868
78871
78866
78860
78868
78873
78904
78914
78918
78921
78930
78957
78966
78953
78969
78973
78966
78993
79006
79020
79041
79051
79064
79070
79088
79095
79125
79147
79152
79165
79167
79208
79202
79212
79217
79218
79218
79153
79036
78912
78836
78826
78795
78807
78808
78786
78794
78804
78806
78838
78842
78868
78867
78860
78853
78864
78875
78872
78889
78900
78904
78930
78945
78937
78955
78978
78980
79017
79013
79041
79053
79072
79084
79089
79103
79131
79146
79154
79144
79168
79176
79173
79192
79213
79239
79230
79244
79212
79132
79029
78968
78928
78916
78926
78912
78928
78923
78918
78924
78958
78963
78993
79008
78991
78983
78972
78979
78991
78982
78993
78998
79008
79020
79032
79048
79028
79047
79045
79059
79069
79088
79098
79087
79132
79133
79120
79144
79157
79169
79145
79170
79161
79164
79176
79194
79167
79112
79019
78909
78865
78833
78818
78809
78850
78867
78849
78844
78816
78809
78777
78753
78709
78698
78658
78643
78630
78599
78602
78570
78554
78548
78521
78509
78555
78577
78619
78669
78738
78771
78805
78809
78896
78929
78936
79020
78975
78865
78372
78085
78163
78184
78473
78626
78804
79149
79402
79240
79269
79271
79257
79198
79110
79019
78972
78925
78892
78864
78834
78800
78776
78727
78736
78715
78725
78668
78488
78631
78370
78302
77687
77790
77952
77770
76951
76931
76829
76657
76796
76171
76422
76181
75677
75560
75175
74292
74595
75161
75298
75351
75293
75278
75318
75317
75302
75287
75264
75243
75201
75162
75120
75073
74954
74796
74639
74486
74389
74295
74236
74179
74088
74045
74001
73971
73973
73975
73960
73812
73710
73617
73551
73507
73438
73418
73399
73378
73358
73316
73305
73298
73314
73307
73299
73371
73432
73475
73410
73316
73307
73288
73282
73311
73330
73340
73381
73376
73406
73434
73451
73474
73476
73489
73492
73498
73506
73508
73513
73520
73537
73560
73558
73560
73579
73588
73588
73610
73602
73638
73621
73641
73649
73664
73653
73654
73651
73652
73651
73663
73670
73689
73676
73673
73714
73707
73741
73738
73738
73792
73805
73823
73860
73874
73874
73809
73690
73590
73545
73546
73542
73550
73557
73586
73585
73594
73588
73629
73644
73626
73624
73616
73622
73602
73613
73604
73617
73616
73653
73648
73646
73661
73666
73680
73696
73725
73724
73733
73745
73752
73750
73770
73776
73789
73786
73807
73828
73828
73848
73869
73867
73878
73855
73789
73686
73618
73569
73576
73586
73567
73583
73603
73614
73614
73642
73633
73640
73642
73638
73622
73591
73598
73602
73604
73613
73635
73644
73644
73655
73641
73680
73669
73665
73693
73705
73720
73734
73717
73738
73749
73751
73743
73760
73681
73596
73518
73455
73474
73451
73464
73464
73475
73480
73490
73487
73488
73504
73487
73487
73464
73474
73492
73498
73509
73515
73497
73524
73541
73545
73550
73565
73588
73596
73593
73589
73598
73608
73621
73603
73596
73565
73463
73394
73326
73284
73265
73265
73270
73272
73263
73270
73288
73303
73311
73317
73301
73269
73272
73260
73277
73285
73302
73299
73315
73327
73325
73339
73355
73365
73384
73388
73399
73397
73410
73426
73417
73450
73440
73447
73466
73465
73471
73494
73487
73494
73493
73451
73381
73270
73190
73167
73150
73142
73152
73142
73158
73129
73165
73166
73190
73189
73189
73190
73163
73155
73171
73158
73168
73193
73193
73199
73203
73193
73204
73216
73227
73243
73249
73265
73286
73271
73308
73317
73345
73362
73353
73383
73403
73412
73395
73435
73431
73466
73466
73475
73462
73463
73477
73446
73339
73246
73179
73125
73128
73100
73102
73101
73120
73133
73134
73139
73150
73168
73165
73170
73146
73156
73159
73169
73170
73170
73167
73181
73176
73176
73181
73202
73209
73230
73260
73264
73285
73291
73332
73326
73348
73380
73395
73415
73435
73459
73449
73473
73493
73484
73486
73499
73517
73513
73501
73427
73322
73259
73191
73167
73177
73178
73189
73188
73198
73191
73186
73213
73214
73208
73206
73196
73176
73188
73175
73183
73183
73207
73207
73217
73212
73236
73240
73235
73251
73262
73289
73276
73288
73284
73295
73325
73308
73314
73299
73316
73310
73323
73302
73249
73141
73074
73032
72996
73001
73002
72998
73025
73004
73026
73030
73054
73057
73062
73046
73040
73020
73032
73041
73028
73046
73070
73060
73079
73091
73076
73098
73106
73126
73114
73119
73147
73135
73143
73152
73160
73108
73025
72943
72887
72832
72850
72861
72854
72854
72852
72856
72855
72858
72886
72875
72879
72858
72839
72834
72854
72842
72846
72882
72877
72894
72889
72906
72920
72936
72933
72954
72950
72962
72970
72989
72989
72990
72977
72885
72791
72705
72673
72668
72655
72677
72650
72659
72666
72664
72667
72659
72688
72675
72682
72680
72666
72671
72691
72689
72689
72711
72718
72724
72723
72750
72754
72764
72770
72802
72811
72812
72831
72845
72859
72867
72875
72900
72909
72925
72924
72935
72952
72973
72982
72988
73011
73002
72950
72838
72744
72676
72648
72653
72637
72646
72642
72655
72663
72665
72675
72687
72711
72702
72672
72715
72689
72698
72709
72705
72705
72755
72744
72777
72792
72791
72801
72828
72857
72853
72851
72872
72898
72904
72924
72941
72949
72956
72973
72991
72997
72994
73039
73053
73080
73129
73136
73136
73160
73178
73123
73042
72935
72860
72817
72819
72839
72810
72846
72820
72819
72841
72856
72854
72894
72887
72868
72872
72846
72869
72891
72886
72902
72906
72922
72922
72937
72969
72955
72981
72971
73004
72989
73019
73038
73028
73060
73056
73082
73073
73091
73111
73118
73130
73110
73147
73138
73139
73112
73055
72942
72888
72861
72831
72841
72851
72876
72884
72877
72904
72896
72926
72925
72925
72925
72900
72913
72916
72916
72915
72945
72925
72934
72941
72945
72952
72970
72979
72994
72983
73002
73031
73018
73026
73036
73049
73033
73071
72993
72930
72839
72778
72766
72749
72761
72787
72798
72799
72798
72809
72808
72827
72818
72835
72817
72813
72815
72810
72812
72825
72818
72825
72842
72847
72843
72857
72862
72870
72885
72882
72906
72901
72902
72882
72788
72693
72634
72588
72597
72587
72612
72608
72582
72579
72599
72594
72619
72645
72622
72630
72632
72606
72622
72634
72650
72653
72671
72659
72693
72704
72682
72715
72706
72722
72753
72749
72754
72765
72764
72776
72787
72819
72797
72826
72837
72852
72824
72749
72653
72581
72542
72501
72520
72500
72494
72514
72518
72506
72523
72542
72563
72572
72555
72551
72553
72541
72559
72562
72590
72611
72595
72617
72613
72636
72662
72680
72664
72690
72695
72698
72710
72734
72730
72746
72753
72776
72782
72797
72785
72791
72803
72795
72728
72698
72645
72624
72647
72686
72714
72656
72608
72556
72542
72522
72545
72528
72566
72556
72553
72565
72581
72605
72643
72670
72657
72673
72685
72695
72708
72739
72752
72770
72785
72804
72807
72819
72828
72833
72833
72830
72865
72873
72880
72905
72924
72928
72953
72961
72970
72995
73001
72991
72994
72965
72923
72851
72684
72384
72063
71754
71551
71496
71447
71537
71507
71515
71511
71566
71600
71578
71563
71525
71495
71450
71428
71465
71534
71493
71550
71596
71464
70701
71070
71475
72384
72741
73384
73972
74253
74242
74344
74334
74218
74018
73601
73156
73149
73680
74139
74455
74527
74575
74766
74500
73108
73077
73462
73693
73842
73918
73958
73956
73956
73892
73874
73836
73840
73844
73913
74023
74307
73657
73638
73805
73771
73753
73740
73731
73661
73541
73378
73219
73138
73082
73057
73030
73007
72964
72982
72999
72994
73018
73050
73065
73071
73061
73093
73102
73099
73106
73136
73164
73189
73200
73210
73242
73265
73245
73238
73221
73210
73181
73081
72990
72944
72938
72934
72930
72952
72972
72981
73006
73003
73059
73075
73107
73118
73121
73128
73131
73146
73138
73166
73157
73212
73226
73252
73274
73288
73324
73350
73372
73382
73435
73451
73487
73506
73522
73541
73570
73547
73555
73559
73574
73553
73566
73605
73636
73615
73601
73630
73643
73675
73686
73723
73742
73777
73822
73848
73852
73765
73648
73561
73509
73488
73499
73521
73533
73548
73569
73563
73598
73625
73629
73676
73666
73654
73662
73647
73657
73674
73692
73690
73674
73682
73694
73723
73747
73772
73791
73819
73830
73831
73879
73908
73944
73943
73974
74012
74027
74050
74063
74124
74141
74154
74183
74217
74223
74232
74194
74124
74016
73949
73924
73928
73925
73950
73954
73974
74008
74004
74027
74043
74074
74073
74053
74049
74057
74084
74104
74109
74122
74108
74135
74131
74155
74176
74195
74202
74226
74244
74266
74264
74309
74305
74310
74329
74383
74329
74228
74130
74073
74027
74024
74052
74041
74047
74059
74065
74075
74094
74094
74114
74096
74049
74026
74027
74017
74043
74062
74076
74072
74074
74059
74072
74100
74096
74092
74113
74116
74127
74142
74150
74175
74220
74212
74201
74098
73953
73885
73843
73812
73801
73799
73808
73771
73758
73757
73771
73802
73807
73831
73853
73828
73820
73829
73860
73878
73901
73928
73974
74010
74025
74061
74096
74108
74131
74117
74133
74148
74153
74176
74188
74199
74211
74216
74239
74256
74278
74282
74297
74343
74348
74339
74385
74418
74437
74425
74329
74196
74085
74006
73973
73961
73962
73961
73991
73998
74019
74026
74074
74077
74095
74101
74105
74101
74082
74105
74124
74149
74163
74164
74191
74211
74232
74250
74274
74316
74350
74354
74381
74428
74454
74484
74513
74534
74577
74578
74617
74610
74617
74653
74669
74686
74705
74694
74714
74739
74719
74662
74532
74457
74367
74303
74303
74299
74291
74308
74308
74315
74308
74323
74348
74355
74366
74357
74351
74349
74352
74343
74344
74380
74380
74416
74402
74408
74421
74441
74453
74481
74503
74511
74529
74568
74576
74574
74594
74615
74603
74614
74622
74651
74654
74660
74582
74461
74337
74250
74202
74193
74182
74181
74181
74206
74207
74205
74227
74243
74246
74245
74215
74225
74199
74199
74197
74217
74221
74246
74249
74262
74272
74283
74298
74306
74346
74321
74351
74357
74367
74381
74397
74405
74363
74241
74131
74042
73982
73977
73959
73967
73945
73947
73954
73967
73970
73975
73989
73990
73956
73944
73956
73962
73964
74003
73987
73997
74026
74024
74039
74092
74103
74098
74119
74142
74152
74162
74178
74210
74234
74249
74238
74231
74270
74279
74234
74142
73987
73868
73816
73785
73792
73789
73769
73785
73783
73794
73785
73830
73846
73849
73868
73849
73856
73865
73869
73883
73891
73919
73934
73954
73964
73975
74000
74018
74029
74050
74093
74099
74103
74141
74168
74186
74217
74223
74262
74280
74298
74298
74312
74346
74336
74357
74380
74411
74415
74439
74444
74378
74257
74121
74033
74000
73979
73980
73988
73996
74012
74013
74034
74034
74068
74079
74089
74074
74067
74084
74089
74084
74098
74105
74124
74151
74166
74194
74200
74225
74239
74261
74270
74288
74315
74316
74343
74362
74377
74408
74404
74440
74444
74451
74477
74467
74460
74473
74496
74489
74413
74275
74152
74070
74030
73991
73984
73966
73946
73926
73938
73941
73947
73975
73986
73991
73979
73953
73970
73988
74017
74054
74055
74070
74079
74071
74029
74013
73926
73860
73820
73749
73720
73697
73797
73856
73843
73798
73629
73216
73242
73320
73290
73248
73133
73054
72988
72924
72885
72836
72813
72786
72765
72769
72752
72717
72665
72599
72533
72435
72374
72336
72319
72321
72263
72191
72167
