71041
70495
70447
70356
70277
70245
70225
70206
70201
70195
70177
70205
70196
70219
70231
70251
70244
70252
70257
70247
70240
70266
70284
70316
70316
70317
70336
70337
70354
70372
70404
70417
70439
70456
70478
70496
70517
70522
70527
70521
70533
70528
70516
70540
70545
70538
70566
70586
70550
70478
70353
70274
70201
70202
70219
70216
70230
70214
70219
70241
70237
70239
52690
52672
52678
52674
52657
52662
52665
52661
52661
52655
52645
52653
52650
52643
52639
52634
52646
52624
52626
52637
52634
52631
52626
52633
52630
52643
52644
52650
52651
52682
52649
52664
70411
70319
70206
70160
70141
70103
70092
70087
70090
70077
70075
70106
70117
70099
70115
70084
70076
53153
53116
53098
53088
53066
53064
53065
53085
53071
53066
53065
53073
53067
53074
53078
53065
53071
53053
53066
53071
53047
53058
53072
53083
53160
53218
53293
53318
53325
53344
53365
53379
69866
69867
69859
69893
69903
69886
69904
69891
69917
69899
69918
69903
69920
69941
69960
69965
69991
69984
53492
53492
53471
53450
53434
53428
53421
53413
53398
53405
53404
53397
53399
53400
53390
53418
53481
53529
53575
53570
53579
53590
53577
53563
53595
53602
53610
53616
53622
53610
53612
53639
70288
70286
70248
70254
70240
70257
70282
70328
70353
70372
70382
70396
70422
70448
70449
70453
70480
70484
70500
70480
70465
70492
70513
70520
70548
70543
70536
70486
70439
70406
70471
70438
70578
70743
70875
70971
71053
71125
71203
71229
71307
71355
71357
71377
71387
71380
71379
71386
71383
71388
71380
71392
71386
71397
71400
71404
71382
71401
71397
71390
71434
71454
71488
71532
71605
71615
71431
71407
71374
71382
71341
71312
71275
71262
71243
71245
71249
71263
71261
71259
71258
71216
71208
71172
71190
71177
71174
71185
71191
71195
71206
71232
71251
71271
71293
71290
71335
71344
71346
71372
71356
71341
71272
71156
71101
71073
71068
71097
71117
71145
71169
71213
71258
71294
71303
71283
71303
71300
71296
71300
71332
71358
71361
71418
71439
71442
71479
71501
71528
71564
71597
71601
71652
71659
71619
71520
71439
71367
71343
71327
71380
71375
71407
71418
71474
71494
71523
71531
71547
71561
71527
71500
71525
71517
71545
71584
71602
71659
71707
71740
71791
71830
71888
71931
71956
72011
71983
71908
71809
71714
71677
71650
71651
71656
71696
71717
71724
71747
71753
71750
71750
71774
71760
71743
71749
71754
71786
71790
71829
71848
71900
71906
71965
71996
72001
72022
72025
72032
72037
71981
71907
71817
71755
71702
71703
71724
71719
71750
71786
71801
71840
71896
71898
71909
71895
71885
71901
71920
71924
71978
71998
72069
72123
72145
72182
72217
72249
72277
72321
72354
72357
72387
72318
72223
72120
72053
72049
72062
72093
72145
72179
72213
72273
72276
72295
72332
72366
72342
72360
72365
72371
72399
72427
72455
72467
72473
72520
72543
72569
72564
72598
72606
72641
72644
72672
72632
72555
72465
72381
72318
72285
72281
72291
72327
72334
72359
72388
72410
72448
72457
72462
72447
72454
72441
72463
72454
72442
72550
72602
72671
72631
72535
72112
71980
71799
72049
72271
72488
72388
72328
72259
72235
72203
72198
72216
72244
72272
72285
72319
72337
72340
72335
72321
72298
72254
72242
72239
72189
72156
72089
72085
72126
72135
72233
74961
77554
76509
75913
74871
74768
75700
77186
78047
78095
78252
77666
76984
76597
76294
76756
76673
76067
75676
75312
75023
74717
74068
73902
73890
73769
73620
73409
73174
73061
72977
72995
73016
73080
73129
73194
73266
73326
73335
73367
73422
73466
73498
73437
72347
72987
73208
73409
73448
73466
73684
73758
73833
74087
74231
74367
74588
74799
74672
74704
74792
74733
74735
74753
74800
74857
74845
74745
74725
74668
74665
74685
74691
74790
74831
74834
74861
74889
74892
74875
74846
74817
74792
74783
74735
74667
74587
74290
73770
73225
71825
70835
71421
71324
71337
70918
70504
70156
69898
69656
69549
69471
69418
69405
69406
69370
69325
69285
69251
69251
69298
69344
69393
69465
69567
69665
69761
69893
69999
70106
70180
70241
70336
70377
70424
70445
70479
70436
70425
70399
70415
70460
70530
70567
70634
70697
70818
70546
70549
70600
70687
70769
70808
70859
70893
70908
70907
70906
70912
70887
70893
70903
70898
70895
70899
70846
70781
70672
70610
70549
70494
70458
70352
70353
70397
70460
70508
70571
70590
70616
70653
70683
70660
70662
70603
70564
70546
70543
70603
70635
70703
70789
71188
71340
71410
71410
71426
71406
71485
71515
71596
71646
71688
71790
71860
71894
71877
71836
71792
71775
71779
71782
71783
71813
71827
71840
71891
71931
71933
71913
71882
71831
71807
71805
71657
71542
71374
70964
70638
70353
70305
70319
70395
70525
70694
70935
71200
71444
71536
71659
71817
71917
71959
71980
72026
72075
72113
72172
72262
72338
72388
72376
72345
72286
72249
72229
72187
72170
72084
71983
71882
71819
71837
71832
71858
71877
71919
72020
72123
72195
72288
72349
72370
72302
72181
72067
72000
72080
72059
72100
72128
72175
72186
72229
72237
72250
72253
72286
72256
72244
72237
72254
72271
72269
72250
72243
72199
72148
72127
72130
72092
72058
72031
72029
71977
71981
71968
72003
72053
72108
72180
72210
72230
72265
72353
72424
72486
72545
72509
72354
72158
72017
71920
71865
71835
71834
71882
71959
71969
71978
71977
72037
72058
72094
72128
72182
72238
72303
72393
72487
72526
72620
72591
72554
72481
72452
72370
72240
72094
71934
71837
71753
71698
71694
71734
71771
71832
71867
71897
71904
71848
71797
71760
71677
71521
71337
71214
71148
71165
71132
70958
70701
70495
70317
70212
70134
70107
70081
70068
70034
70025
70032
70074
70109
70217
70456
70639
70785
70917
71054
71252
71454
71563
71641
71746
71818
71890
71976
72057
72114
72137
72167
72250
72334
72441
72568
72675
72769
72810
72769
72647
72564
72490
72484
72552
72550
72565
72566
72613
72657
72709
72723
72763
72828
72874
72973
73017
73038
73040
73005
72986
72950
72929
72926
72953
72983
72630
72602
72586
72573
72520
72430
72421
72406
72385
72403
72471
72545
72643
72696
72762
72747
72709
72657
72657
72619
72640
72649
72648
72636
72609
72549
72489
72451
72431
72448
72445
72472
72493
72556
72643
72688
72790
72814
72739
72603
72526
72491
72475
72516
72513
72539
72562
72524
72496
72471
72454
72441
72420
72398
72434
72479
72527
72609
72723
72806
72884
72900
72897
72850
72824
72726
72606
72506
72420
72356
72305
72280
72281
72281
72307
72329
72365
72464
72531
72552
72641
72693
72726
72707
72682
72620
72609
72574
72577
72582
72609
72609
72597
72617
72612
72583
72507
72451
72432
72449
72472
72527
72580
72601
72632
72582
72516
72460
72445
72431
72427
72412
72402
72381
72371
72359
72345
72352
72369
72369
72376
72378
72392
72441
72516
72594
72607
72571
72463
72335
72253
72221
72206
72214
72237
72275
72309
72309
72251
72232
72208
72192
72199
72203
72263
72300
72398
72458
72519
72587
72652
72723
72695
72575
72426
72300
72188
72138
72090
72090
72061
72072
72057
72053
72106
72122
72198
72242
72282
72344
72443
72535
72609
72629
72605
72576
72532
72503
72499
72487
72494
72439
72408
72460
72716
73914
77244
72489
78076
76826
76783
75938
77307
77275
77541
77603
77462
77399
77301
77244
77207
77199
77159
77160
77140
77111
77018
76850
76638
76274
76047
75845
75735
75786
75906
76010
76129
76090
75936
75860
75787
75787
75809
75824
75861
75922
75861
75836
75825
75821
75786
75743
75720
75071
75024
75001
74952
74931
75001
75051
75131
75139
75072
74919
74887
74863
74911
74963
75050
75077
75107
75112
75111
75075
75077
75080
75060
75072
75099
75143
75202
75256
75309
75393
75481
75563
75586
75558
75453
75303
75227
75199
75198
75197
75167
75174
75162
75185
75181
75179
75190
75217
75279
75342
75369
75428
75505
75531
75511
75474
75458
75453
75476
75470
75490
75440
75353
75241
75171
75114
75112
75130
75146
75188
75232
75284
75343
75374
75439
75480
75459
75431
75389
75378
75397
75414
75426
75452
75427
75424
75452
75459
75473
75473
75474
75478
75501
75555
75586
75592
75581
75539
75501
75478
75472
75491
75509
75533
75548
75583
75587
75574
75548
75545
75535
75532
75541
75543
75561
75606
75643
75716
75775
75828
75851
75861
75809
75658
75584
75548
75529
75511
75492
75478
75451
75452
75439
75411
75413
75395
75378
75432
75486
75547
75608
75693
75730
75765
75754
75732
75712
75723
75717
75689
75605
75520
75437
75408
75383
75367
75365
75373
75394
75413
75481
75542
75612
75690
75761
75805
75793
75744
75741
75726
75713
75724
75701
75706
75723
75703
75665
75633
75604
75542
75511
75511
75532
75595
75666
75703
75755
75792
75749
75755
75727
75716
75716
75704
75683
75693
75699
75690
75695
75670
75687
75687
75701
75718
75753
75805
75856
75903
75942
75904
75785
75712
75634
75611
75608
75595
75616
75671
75650
75616
75599
75524
75512
75536
75556
75591
75633
75702
75765
75836
75886
75969
76025
76059
76012
75854
75742
75678
75650
75617
75591
75572
75559
75523
75522
75536
75587
75629
75698
75759
75827
75929
75997
76066
76133
76175
76192
76161
76117
76094
76071
76045
75921
75806
75700
75620
75584
75569
75568
75599
75598
75655
75734
75822
75904
75998
76047
76094
76072
76024
75974
75929
75911
75919
75950
75957
75960
75948
75967
75957
75961
75987
75991
76039
76084
76128
76186
76201
76165
76050
75955
75876
75843
75832
75822
75850
75848
75857
75849
75814
75803
75805
75795
75819
75870
75932
75997
76085
76155
76224
76243
76265
76338
76388
76414
76362
76254
76122
76010
75926
75875
75830
75819
75824
75865
75923
76003
76039
76159
76211
76276
76346
76391
76430
76472
76565
76589
76552
76522
76510
76517
76520
76510
76514
76476
76471
76486
76462
76395
76329
76314
76334
76354
76395
76420
76423
76446
76426
76412
76403
76409
76410
76426
76415
76423
76410
76380
76346
76350
76343
76331
76354
76392
76420
76515
76561
76634
76711
76752
76764
76679
76515
76438
76395
76351
76353
76390
76362
76350
76319
76319
76307
76281
76255
76253
76270
76289
76329
76374
76459
76562
76607
76583
76562
76509
76421
76313
76231
76144
76072
76008
75952
75881
75837
75842
75870
75899
75902
75948
76009
76032
76100
76150
76166
76224
76272
76258
76223
76206
76188
76185
76193
76188
76188
76153
76081
76001
75962
75931
75929
75944
75999
76050
76141
76231
76346
76425
76468
76479
76461
76436
76412
76436
76419
76401
76371
76378
76354
76289
76268
76289
76322
76335
76387
76461
76503
76474
76408
76314
76259
76214
76211
76226
76234
76269
76287
76290
76246
76190
76186
76219
76226
76238
76255
76301
76365
76392
76416
76463
76536
76584
76623
76538
76406
76289
76221
76211
76193
76179
76191
76182
76140
76228
76288
76308
76366
76427
76453
76516
76556
76621
76660
76711
76800
76836
76799
76766
76744
76730
76666
76523
76393
76304
76212
76169
76157
76210
76222
76257
76288
76366
76446
76529
76607
76723
76776
76777
76717
76480
76514
76489
76527
76518
76512
76517
76507
76526
76515
76456
76382
76324
76297
76323
76355
76409
76465
76520
76547
76570
76549
76522
76524
76488
76464
76436
76419
76420
76392
76353
76322
76308
76322
76320
76346
76381
76409
76484
76557
76599
76526
76395
76329
76235
76123
76052
76040
76104
76058
76054
75943
75870
75843
75812
75805
75807
75821
75902
75876
75909
75971
75993
76047
76043
75931
75797
75773
75751
75847
75909
75970
75993
76019
76042
76050
76046
76086
76061
76100
76146
76189
76239
76298
76387
76425
76441
76465
76464
76443
76389
76321
76202
76167
76153
76093
76009
76055
76221
76331
76287
76169
76074
76147
76239
76263
76360
76313
75771
72091
73683
75055
74301
72814
72723
72643
72732
72732
72767
72664
72497
72547
72586
72650
72696
72730
72785
72904
73092
73413
74066
74567
75035
75334
76097
76247
76090
76106
76621
77200
77894
78320
78562
78918
79126
78156
77253
76032
75749
75710
75893
75630
75634
75730
75818
75879
75914
75933
75894
75827
75757
75698
75647
75638
75566
75298
75129
75071
74978
74954
74968
75007
75086
75198
75280
75362
75333
75213
75108
75037
75068
75107
75153
75204
75269
75358
75342
75286
75238
75188
75202
75224
75253
75289
75332
75381
75440
75496
75592
75706
75804
75797
75614
75472
75379
75369
75368
75394
75407
75452
75477
75508
75493
75450
75407
75424
75461
75530
75611
75666
75751
75882
76020
76060
76063
76002
75889
75705
75605
75517
75473
75491
75514
75474
75439
75387
75405
75407
75449
75498
75557
75606
75663
75719
75773
75892
75984
75982
75969
75941
75925
75873
75760
75639
75524
75431
75334
75297
75273
75246
75273
75243
75304
75388
75433
75495
75601
75726
75808
75779
75722
75655
75613
75613
75656
75762
75814
75792
75638
75484
75381
75325
75291
75257
75277
75366
75423
75453
75463
75503
75589
75617
75608
75570
75529
75527
75551
75614
75651
75707
75754
75751
75778
75737
75686
75615
75574
75542
75508
75459
75464
75487
75477
75516
75543
75542
75596
75607
75637
75646
75694
75717
75711
75656
75675
75635
75603
75619
75641
75673
75684
75736
75844
75890
75910
75872
75748
75642
75604
75616
75637
75689
75727
75752
75768
75756
75734
75669
75673
75673
75667
75650
75641
75705
75788
75839
75978
76055
76195
76319
76208
76010
75845
75734
75733
75794
75793
75703
75677
75633
75589
75571
75567
75613
75638
75678
75755
75843
75919
76019
76106
76218
76323
76346
76330
76293
76204
76099
76014
75987
75953
75976
75916
75902
75879
75851
75865
75879
75913
75996
76084
76162
76290
76400
76480
76481
76422
76403
76411
76492
76561
76666
76651
76572
76426
76286
76278
76337
76419
76514
76640
76689
76733
76771
76838
76885
76967
77050
76993
76911
76835
76806
76795
76728
76694
76747
76715
76615
76591
76524
76386
76295
76235
76238
76275
76307
76322
76314
76348
76354
76371
76359
76373
76360
76372
76393
76439
76543
76535
76558
76611
76619
76626
76642
76609
76593
76622
76652
76643
76610
76549
76475
76467
76426
76387
76368
76352
76342
76361
76460
76499
76386
76350
76289
76104
75817
75227
74864
74921
74998
75171
75487
75752
76038
76247
76054
78865
79831
75013
79357
77152
78646
77006
78128
78467
78513
78339
77738
78423
78664
78470
78355
78175
77984
77771
77455
77109
76796
76414
76203
75942
75686
75551
75499
75397
75347
75365
75361
75316
75263
75214
75199
75174
75181
75243
75294
75338
75311
74559
74545
74802
74997
75256
75376
75409
75116
75119
75114
75125
75093
75103
75126
75116
75176
75271
75356
75453
75550
75618
75675
75685
75741
75679
75730
75887
75987
75791
75786
75802
75913
76012
76099
76149
76212
76327
76461
76492
76498
76249
76022
76051
76075
76093
76096
76121
76150
76216
76288
76346
76462
76569
76752
76831
76865
76851
76881
77016
77097
77132
77146
77160
77188
77273
77395
77574
77762
77788
77773
77800
77528
77211
77163
77196
77236
77260
77256
77237
77208
77188
77127
77102
77068
77046
77066
77156
77234
77249
77328
77354
77343
77266
77163
77082
77037
77046
77042
77061
77078
77091
77087
77143
77192
77194
77182
77225
77254
77289
77277
77288
77302
77319
77338
77312
77282
77280
77246
77226
77178
77151
77189
77230
77236
77209
77213
77223
77234
77202
77234
77216
77179
77097
76984
76918
76817
76827
76792
76856
76721
76594
76561
76533
76482
76415
76283
76231
76205
76057
76011
75861
75687
75236
75071
74926
74758
74558
74463
74482
74525
74587
74729
74776
74782
74790
74802
74797
74813
74780
74796
74767
74723
74692
74683
74746
74766
74771
74817
74796
74723
74728
74778
74817
74863
74886
74921
74872
74880
74879
74913
74916
74932
74902
74906
74940
74937
74885
74851
74823
74822
74828
74839
74914
74947
74954
74135
74295
74357
74448
74502
74454
74477
74543
74525
74537
74653
74777
74840
74904
74954
75030
75079
75083
74917
74701
74521
74464
74660
74813
74877
74906
74935
74953
74992
75021
75036
75130
75182
75153
75154
75242
75326
75371
75415
75497
75578
75648
75656
75673
75736
75766
75733
75644
75587
75562
75560
75583
75600
75621
75614
75643
75671
75742
75779
75775
75776
75799
75791
75778
75708
75722
75723
75712
75723
75728
75733
75739
75746
75670
75545
75441
75390
75359
75390
75370
75396
75374
75410
75427
75427
75457
75445
75439
75427
75410
75419
75424
76581
76575
76578
76564
76467
76335
76207
76149
76098
76064
76055
76066
76067
76075
76090
76095
76124
76141
76122
76126
76133
76109
76098
76113
76126
76110
76111
76120
76150
76150
76156
76181
76182
76203
76241
76259
76241
76145
76049
75940
75869
75846
75808
75827
75813
75812
75832
75821
75850
75868
75887
75902
75924
75924
75947
75966
75984
76007
76025
76051
76090
76082
76113
76131
76126
76151
76179
76195
76217
76230
76244
76286
38556
76281
76176
76039
75955
75850
75833
75810
75804
75825
75840
75856
75878
75890
75933
75962
75969
75988
75982
75981
75993
75997
76036
76055
76070
76104
76125
76139
76172
76171
76191
76211
76227
76236
76262
76276
76294
76326
76314
76349
76366
76346
76385
76400
76408
76326
76195
76075
75975
75926
75890
75893
75874
75891
75889
75932
75925
75974
76014
76024
76063
76071
76055
76081
76097
76119
76146
76166
76183
76229
76253
76247
76296
76317
76331
76340
76349
76352
76376
76413
76425
76417
76431
76469
76486
76493
76463
76377
76247
76139
76075
76060
76030
76018
76042
76037
76059
76089
76109
76141
76158
76171
76165
76137
76136
76144
76156
76178
76216
76226
76246
76251
76264
76313
76340
76323
76346
76341
76352
76345
75987
76053
76090
76127
76104
76011
75905
75818
75760
75750
75747
75737
75750
75774
75815
75859
75899
75929
75965
75975
75986
75992
76010
76026
76058
76098
76114
76147
76148
76202
76225
76263
76294
76333
76374
76428
76452
76474
76444
76337
76227
76153
76104
76083
76078
76088
76074
76109
76133
76120
76148
76168
76188
76197
76173
76138
76167
76179
76174
76186
76172
76192
76167
76170
76154
76169
76196
76197
76210
76226
76234
76170
76051
75953
75880
75840
75828
75840
75811
75817
75828
75838
75848
75877
75906
75922
75940
75951
75936
75953
75972
75986
76008
76046
76051
76066
76078
76094
76134
76151
76149
76180
76201
76205
76230
76242
76278
76308
76312
76313
76345
76355
76384
76400
76355
76240
76108
75993
75927
75908
75858
75868
75865
75854
75865
75869
75903
75931
75943
75966
75965
75952
75957
75968
75974
75992
76013
76017
76050
76061
76055
76088
76083
76123
76127
76148
76148
76209
76210
76221
76259
76280
76289
76303
76345
76356
76364
76358
76410
76408
76342
76235
76101
75987
75938
75908
75900
75894
75891
75899
75900
75951
75964
75983
75986
76016
76031
76031
76032
76037
76067
76065
76090
76118
76151
76167
76182
76204
76225
76244
76270
76293
76299
76313
76345
76362
76397
76436
76460
76487
76524
76528
76545
76584
76616
76633
76643
76566
76438
76340
76293
76257
76252
76250
76273
76293
76302
76306
76302
76352
76353
76395
76388
76389
76371
76383
76406
76432
76426
76429
76461
76458
76487
76489
76503
76531
76535
76571
76575
76589
76571
76591
76573
76599
76583
76598
76608
76607
76660
76683
76609
76495
76388
76314
76272
76271
76257
76273
76267
76294
76307
76329
76401
76474
76557
76613
76640
76692
76755
76793
76861
76889
76920
76989
77009
77023
77054
77056
77084
77119
77086
77062
77038
77037
77003
76978
76969
76953
76913
76885
76760
76628
76525
76505
76461
76475
76483
76481
76475
76487
76484
76477
76484
76496
76462
76476
76440
76447
76415
76424
76426
76409
76414
76433
76437
76447
76454
76443
76477
76503
76486
76495
76490
76474
76488
76472
76490
76478
76487
76473
76471
76457
76424
76366
76207
76109
76042
76024
75985
75643
75708
75738
75746
75793
75828
75851
75895
75880
75893
75875
75848
75840
75854
75911
75922
75918
75948
75945
75939
75957
75951
75952
75944
76005
76009
76036
76044
76046
76075
76079
76087
76079
76095
76102
76089
76092
76105
76111
76106
76118
76133
76091
75988
75885
75770
75723
75706
75686
75691
75669
75669
37194
75671
75676
75713
75704
75713
75716
75700
75701
75681
75699
75681
75700
75704
75700
75740
75723
75744
75735
75734
75749
75741
75738
75759
75775
75785
75806
75804
75824
75842
75831
75832
75853
75859
75870
75886
75888
75903
75909
75936
75895
75837
75706
75648
75587
75569
75577
75570
75583
75593
75610
75613
75628
75632
75637
75680
75657
75643
75638
75643
75657
75670
75676
75677
75686
75700
75700
75699
75737
75738
75755
75784
75797
75812
75824
75837
75832
75861
75865
75881
75898
75898
75920
75925
75954
75952
75873
75789
75714
75639
75619
75635
75626
75628
75618
75634
75653
75643
75671
75689
75710
75701
75723
75727
75719
75735
75729
75732
75754
75749
75777
75772
75810
75810
75815
75833
75850
75859
75865
75875
75896
75886
75905
75914
75940
75950
75944
75962
75971
76008
75995
76004
76019
75925
75831
75744
75709
75673
75684
75687
75673
75684
75692
75680
75693
75702
75727
75742
75735
75743
75748
75750
75742
75741
75768
75792
75795
75818
75834
75832
75868
75865
75886
75896
75916
75948
75962
75957
75955
75962
75958
75981
75994
75994
76009
76019
76036
76041
76041
76062
76067
76009
75924
75856
75783
75733
75752
75762
75748
75744
75757
75746
75752
75754
75763
75785
75770
75760
75760
75753
75777
75763
75776
75778
75813
75802
75808
75841
75840
75863
75866
75869
75902
75899
75896
75919
75951
75945
75957
75984
75980
75984
75997
76008
76005
75996
75980
75896
75802
75751
75721
75717
75725
75707
75729
75725
75740
75741
75772
75767
75777
75782
75793
75784
75768
75777
75774
75797
75799
75799
75804
75823
75839
75830
75845
75854
75903
75889
75902
75896
75894
75925
75936
75936
75934
75949
75952
75936
75884
75783
75703
75689
75685
75653
75676
75646
75663
75661
75674
75677
75677
75659
75628
75604
75579
75579
75552
75587
75583
75602
75599
75600
75604
75596
75640
75631
75644
75655
75666
75653
75658
75690
75683
75704
75727
75696
75686
75669
75664
75655
75628
75564
75453
75368
75306
75288
75277
75287
75258
75254
75240
75225
75219
75258
75263
75267
75255
75280
75273
75258
75246
75265
75253
75250
75253
75251
75266
75256
75256
75249
75258
75281
75290
75356
75388
75425
75440
75476
75500
75521
75548
75536
75573
75603
75589
75622
75617
75631
75674
75734
75843
75882
75868
75528
75074
75198
75400
75417
75460
75753
75768
75381
74756
74456
74584
74811
74861
74856
74893
74971
75448
75584
75531
75501
75405
75313
75276
75335
75430
75465
75426
75396
75383
75370
75406
75418
75367
75179
75083
75027
74991
74969
74940
74893
74918
74916
74925
74917
74912
74852
74809
74767
74764
74787
74787
74804
74831
74833
74876
74892
74908
74911
74955
74961
74958
74974
75003
75018
75073
75093
75118
75117
75107
75157
75378
75475
75557
75635
75717
75794
75831
75890
75923
75948
76030
75972
75998
76015
76030
76019
75946
75906
75907
75883
75875
75904
75890
75879
75878
75887
75928
75940
75975
75990
75996
76016
76035
76050
76070
76100
76136
76133
76180
76171
76234
76258
76283
76310
76339
76367
76398
76437
76458
76501
76539
76559
76518
76443
76412
76413
76418
76425
76438
76456
76449
76469
76487
76495
76548
76555
76579
76587
76590
76625
76632
76636
76676
76689
76723
76738
76748
76773
76792
76808
76840
76857
76858
76880
76912
76931
76951
76970
76981
77012
77027
77043
77055
77074
77108
77125
77140
77174
77186
77209
77238
77277
77302
77299
77291
77215
77158
77141
77110
77130
77124
77119
77139
77121
77123
77144
77146
77158
77179
77180
77168
77167
77168
77179
77170
77189
77192
77212
77186
77218
77215
77230
77228
77259
77246
77252
77285
77297
77296
77331
77341
77344
77347
77351
77364
77392
77403
77397
77426
77427
77422
77365
77268
77237
77191
77192
77181
77152
77138
77158
77152
77172
77177
77195
77207
77219
77175
77192
77176
77161
77189
77183
77176
77173
77179
77179
77192
77204
77204
77194
77212
77224
77246
77249
77272
77278
77279
77277
77299
77305
77319
77275
77197
77112
77070
77034
77016
77005
76982
76966
76980
76968
76962
76962
76976
76983
76955
76933
76917
76912
76930
76937
76928
76926
76960
76940
76956
76955
76963
76964
76955
76994
76993
77007
77002
77000
77052
77047
77056
77050
77068
77033
76944
76840
76791
76776
76741
76756
76724
76707
76720
76708
76708
76725
76739
76737
76747
76744
76753
76710
76733
76719
76745
76758
76771
76776
76791
76791
76801
76824
76818
76837
76832
76832
76879
76878
76876
76902
76914
76924
76946
76936
76956
76979
76983
76983
77009
76995
76965
76880
76770
76719
76670
76665
76665
76638
76652
76655
76645
76648
76656
76674
76700
76711
76715
76722
76719
76723
76729
76759
76766
76768
76778
76783
76810
76833
76855
76876
76890
76894
76922
76945
76949
76973
76993
77014
77026
77039
77038
77062
77073
77075
77099
77101
77125
77131
77169
77122
77087
77004
76905
76867
76853
76822
76835
76859
76839
76846
76851
76867
76878
76903
76910
76928
76920
76929
76913
76945
76943
76948
76966
76978
76993
76984
76996
77007
77037
77045
77058
77064
77093
77105
77123
77106
77138
77141
77158
77169
77193
77197
77195
77142
77056
77014
76939
76922
76914
76925
76917
76921
76909
76926
76945
76952
76987
76977
76962
76981
76979
76962
76978
76990
76987
77000
77004
76996
77011
77004
77030
77050
77058
77066
77075
77100
77090
77110
77115
77141
77129
77116
77028
76936
76881
76855
76811
76798
76785
76800
76804
76763
76777
76805
76822
76820
76819
76807
76815
76797
76797
76801
76804
76807
76838
76837
76838
76867
76860
76864
76888
76886
76903
76912
76919
76935
76950
76963
76970
76963
76993
76984
76927
76819
76755
76677
76633
76628
76635
76650
76637
76642
76628
76632
76638
76653
76670
76667
76688
76705
76695
76703
76702
76709
76719
76751
76747
76763
76771
76777
76786
76814
76827
76828
76858
76875
76870
76890
76910
76920
76931
76929
76983
76978
77002
77005
77025
77045
77068
77066
77086
77122
77105
77117
77129
77160
77163
77176
77204
77176
77114
76997
76928
76880
76841
76837
76841
76825
76823
76800
76818
76837
76826
76863
76880
76882
76890
76903
76899
76895
76905
76908
76921
76941
76949
76961
76987
76989
77005
77027
77023
77024
77047
77074
77080
77102
77101
77122
77099
77127
77153
77168
77174
77183
77204
77225
77228
77242
77273
77246
77262
77284
77296
77298
77286
77226
77148
77049
77002
76999
76970
76975
76993
76983
76969
76978
77016
77014
77035
77032
77044
77035
77033
77032
77024
77042
77072
77057
77073
77093
77100
77108
77127
77138
77135
77158
77159
77176
77191
77220
77215
77227
77232
77255
77259
77283
77290
77297
77307
77320
77321
77340
77339
77292
77204
77137
77075
77031
77045
77016
77033
77011
76996
77025
77018
77017
77055
77043
77058
77047
77065
77060
77074
77065
77078
77060
77083
77094
77101
77119
77151
77131
77152
77171
77178
77164
77200
77222
77208
77187
77229
77230
77255
77246
77261
77298
77289
77306
77321
77311
77326
77337
77315
77235
77147
77042
76997
76987
76967
76959
76951
76945
76945
76939
76934
76949
76965
76949
76958
76964
76956
76965
76953
76960
76976
76990
77004
76997
77010
77023
77018
77035
77061
77057
77089
77086
77092
77124
77134
77130
77161
77159
77191
77192
77203
77201
77223
77236
77248
77252
77255
77294
77294
77280
77281
77316
77336
77346
77307
77228
77129
77060
77008
76971
76951
76946
76958
76944
76944
76925
76943
76951
76949
76981
76962
76969
76976
76984
76979
76990
76971
76982
77008
77039
77032
77046
77070
77093
77097
77113
77102
77122
77125
77140
77154
77168
77172
77192
77180
77189
77199
77216
77242
77237
77237
77260
77280
77275
77276
77282
77289
77303
77315
77328
77326
77290
77229
77123
77052
77003
77009
76956
76966
76972
76981
76950
76969
76969
76998
77016
77008
77007
76999
76998
76991
76986
76993
76990
77028
77022
77028
77048
77045
77033
77066
77086
77094
77112
77121
77095
77132
77153
77151
77167
77174
77180
77187
77215
77216
77252
77242
77246
77273
77279
77252
77178
77103
77034
76987
76983
76981
76962
76969
76962
76974
76961
76981
77014
77039
77031
77042
77014
77041
77040
77042
77051
77064
77092
77081
77089
77086
77108
77116
77128
77130
77171
77178
77185
77197
77191
77207
77230
77247
77241
77250
77272
77275
77274
77308
77308
77316
77317
77307
77347
77347
77285
77204
77112
77058
77020
77028
77011
77005
77012
77011
76998
76981
77019
77001
77032
77036
77039
77043
77039
77047
77053
77054
77073
77090
77099
77114
77139
77139
77148
77144
77166
77185
77222
77218
77237
77238
77266
77262
77273
77317
77323
77318
77322
77345
77369
77383
77383
77393
77415
77427
77433
77450
77466
77485
77481
77517
77514
77535
77491
77416
77312
77237
77170
77170
77169
77162
77151
77141
77131
77136
77124
77147
77134
77148
77161
77140
77136
77131
77126
77141
77145
77153
77169
77157
77167
77182
77194
77215
77230
77237
77239
77250
77280
77284
77284
77284
77328
77346
77341
77358
77347
77376
77372
77402
77400
77414
77415
77425
77426
77446
77443
77463
77469
77473
77399
77326
77235
77178
77159
77146
77141
77131
77143
77113
77127
77136
77147
77170
77168
77176
77164
77154
77138
77131
77152
77166
77167
77172
77165
77189
77188
77200
77208
77209
77231
77225
77252
77265
77268
77280
77290
77303
77316
77326
77348
77338
77340
77344
77350
77346
77367
77378
77392
77381
77384
77400
77357
77265
77167
77122
77088
77054
77049
77041
77040
77046
77020
77016
77031
77031
77072
77084
77062
77061
77043
77058
77055
77054
77069
77077
77094
77101
77089
77108
77107
77124
77139
77144
77157
77163
77163
77175
77192
77201
77202
77231
77219
77235
77239
77265
77260
77282
77289
77297
77312
77331
77354
77365
77383
77393
77403
77411
77428
77439
77459
77464
77474
77442
77370
77264
77175
77139
77095
77068
77073
77048
77046
77059
77049
77047
77056
77077
77095
77097
77076
77087
77095
77084
77091
77084
77099
77104
77121
77101
77125
77146
77166
77164
77191
77172
77206
77204
77207
77222
77233
77265
77252
77260
77260
77266
77295
77299
77289
77302
77299
77316
77344
77396
77442
77502
77533
77584
77607
77650
77698
77750
77791
77813
77785
77717
77608
77513
77468
77459
77449
77421
77420
77432
77415
77385
77365
77353
77371
77332
77342
77322
77302
77256
77265
77256
77263
77270
77264
77272
77274
77290
77316
77313
77335
77334
77353
77360
77363
77370
77382
77383
77380
77383
77384
77383
77388
77403
77421
77429
77431
77443
77436
77459
77463
77494
77528
77563
77537
77476
77388
77325
77294
77262
77271
77241
77230
77237
77221
77230
77212
77241
77249
77231
77248
77246
77229
77225
77240
77222
77241
77242
77235
77246
77252
77271
77266
77290
77301
77300
77329
77340
77344
77370
77384
77388
77427
77442
77431
77453
77499
77498
77511
77529
77554
77581
77604
77618
77641
77670
77692
77718
77736
77715
77734
77700
77603
77506
77411
77362
77318
77298
77282
77277
77272
77250
77232
77244
77220
77264
77270
77271
77265
77261
77257
77236
77229
77237
77261
77248
77263
77279
77285
77286
77293
77301
77304
77329
77355
77356
77363
77385
77412
77408
77466
77488
77536
77567
77583
77578
77606
77623
77620
77616
77604
77646
77641
77633
77653
77660
77652
77661
77660
77663
77671
77680
77648
77533
77486
77451
77454
77485
77510
77521
77512
77552
77565
77594
77617
77621
77643
77644
77653
77627
77628
77607
77578
77580
77583
77589
77580
77582
77571
77582
77587
77586
77600
77602
77631
77615
77635
77624
77630
77633
77630
77643
77611
77611
77583
77568
77591
77582
77570
77574
77568
77551
77549
77560
77561
77582
77554
77495
77392
77278
77226
77181
77163
77171
77156
77160
77145
77155
77180
77169
77218
77234
77240
77235
77226
77210
77203
77209
77216
77218
77232
77221
77224
77238
77232
77254
77282
77295
77281
77313
77325
77364
77349
77375
77404
77414
77421
77461
77463
77501
77502
77498
77502
77522
77526
77552
77546
77566
77576
77585
77593
77613
77640
77638
77651
77671
77653
77689
77659
77593
77487
77403
77335
77319
77299
77285
77286
77290
77285
77264
77291
77298
77317
77323
77333
77329
77333
77344
77324
77334
77336
77344
77359
77387
77395
77403
77429
77445
77429
77454
77477
75930
77506
77503
77522
77528
77547
77549
77563
77568
77602
77595
77599
77617
77610
77621
77641
77635
77633
77658
77676
77668
77679
77662
77671
77669
77669
77662
77671
77680
77618
77499
77421
77350
77323
77305
77301
77277
77254
77263
77229
77208
77226
77209
77206
77209
77203
77189
77189
77177
77181
77183
77205
77221
77240
77271
77279
77333
77362
77400
77461
77486
77538
77598
77644
77671
77703
77732
77725
77732
77750
77729
77705
77659
77644
77633
77644
77638
77621
77619
77608
77612
77579
77511
77372
77176
77042
76921
76874
76914
76850
76910
76912
76851
76830
76807
76736
76702
76589
76501
76381
76252
76113
76014
75903
75855
75855
75860
75897
75887
75875
75827
75822
75787
75781
75783
75791
75791
75825
75814
75777
75767
75833
75851
75842
75849
75903
76035
76222
76401
76399
76444
76490
76495
76497
76581
76676
76841
76983
77163
77277
77354
77396
77378
77358
77326
77327
77316
77351
77394
77443
77488
77540
77610
77659
77741
77824
77917
77960
78037
78108
78165
78206
78250
78310
78359
78394
78452
78482
78508
78549
78579
78621
78651
78682
78672
78680
78703
78723
78727
78723
78750
78747
78738
78739
78746
78763
78754
78766
78771
78778
78806
78797
78772
78781
78760
78766
78740
78761
78781
78785
78800
78696
78585
78486
78446
78384
78350
78305
78298
78299
78302
78293
78261
78293
78325
78291
78298
78287
78247
78190
78189
78154
78156
78140
78128
78112
78133
78119
78147
78144
78147
78158
78164
78191
78209
78223
78241
78263
78304
78333
78345
78391
78412
78446
78471
78483
78527
78521
78549
78561
78601
78594
78599
78611
78651
78630
78575
78477
78379
78294
78257
78234
78209
78192
78177
78168
78176
78172
78162
78170
78201
78181
78204
78191
78185
78173
78166
78187
78191
78196
78202
78193
78198
78218
78219
78221
78254
78250
78253
78275
78290
78289
78314
78322
78325
78335
78356
78370
78357
78387
78391
78413
78409
78443
78427
78446
78441
78451
78455
78475
78510
78513
78555
78546
78562
78588
78596
78605
78611
78548
78461
78321
78254
78221
78185
78178
78177
78199
78189
78202
78200
78212
78232
78252
78250
78256
78230
78248
78221
78229
78234
78226
78229
78242
78244
78251
78282
78284
78290
78310
78350
78378
78363
78379
78392
78401
78430
78422
78444
78431
78468
78471
78477
78486
78500
78506
78508
78522
78532
78533
78549
78547
78560
78573
78573
78590
78536
78435
78367
78286
78251
78206
78210
78189
78185
78209
78188
78187
78189
78206
78213
78222
78241
78220
78210
78220
78203
78211
78228
78208
78223
78112
78128
78188
78213
78256
78310
78386
78452
78499
78571
78630
78722
78762
78814
78873
78932
78959
79036
79070
79130
79164
79206
79216
79221
79255
79273
79317
79348
79371
79377
79385
79324
79208
79071
78959
78909
78847
78827
78812
78815
78794
78775
78744
78697
78655
78583
78485
78374
78305
78230
78173
78123
78101
78075
78058
78054
78030
78065
78047
78053
78059
78074
78088
78096
78117
78125
78152
78163
78186
78191
78202
78217
78226
78243
78268
78270
78291
78303
78303
78335
78329
78317
78330
78307
78238
78217
78224
78268
78327
78342
78314
78198
78089
77967
77860
77784
77732
77722
77682
77672
77662
77653
77684
77649
77592
77499
77428
77342
77200
77099
77039
76947
76949
76910
76896
76881
76854
76846
76816
76776
76775
76766
76791
76807
76813
76825
76828
76829
76819
76849
76887
76965
77024
77050
77073
77116
77130
77129
77124
77155
77200
77250
77298
77322
77319
77289
77061
76807
76295
75447
74753
75884
75589
75654
75794
77758
77925
78196
78011
77851
78299
78561
78863
79257
79122
79054
78993
78925
78889
78880
78888
78925
78926
78983
79034
79043
79065
79137
79231
79266
79334
79374
79426
79423
79353
79343
79257
79196
79042
79069
79229
79110
79086
78986
78991
78938
78851
78647
78563
78386
78311
78418
78514
78592
78645
78777
78704
78530
78561
78516
78420
78635
78648
78603
78771
78864
78977
79037
79151
79183
79191
79131
79169
79174
79132
79176
79206
79158
79163
79143
79118
79046
78997
78960
78869
78709
78567
78487
78453
78417
78402
78403
78401
78385
78386
78390
78415
78405
78413
78413
78423
78441
78408
78387
78368
78377
78383
78406
78391
78407
78408
78401
78425
78410
78430
78438
78451
78458
78435
78417
78440
78425
78430
78412
78417
78418
78403
78409
78424
78428
78425
78463
78493
78503
78538
78594
78621
78639
78641
78683
78721
78745
78772
78790
78794
78765
78749
78754
78717
78670
78618
78629
78611
78586
78502
78381
78287
78225
78190
78183
78171
78177
78192
78170
78174
78192
78186
78229
78261
78259
78263
78296
78273
78303
78305
78328
78346
78358
78362
78387
78387
78407
78408
78435
78453
78471
78488
78483
78519
78525
78539
78551
78558
78573
78576
78588
78616
78622
78640
78660
78650
78657
78700
78684
78721
78718
78736
78723
78720
78706
78657
78563
78476
78417
78355
78353
78381
78381
78449
78457
78482
78490
78520
78529
78536
78557
78583
78573
78575
78561
78556
78572
78575
78604
78639
78646
78660
78677
78701
78728
78761
78778
78807
78828
78826
78849
78866
78878
78891
78928
78924
78936
78952
78969
78963
78961
78957
78950
78948
78945
78950
78931
78937
78918
78914
78920
78928
78936
78870
78787
78741
78712
78718
78734
78752
78749
78745
78765
78763
78787
78787
78826
78867
78880
78888
78915
78918
78922
78926
78928
78948
78951
78957
78959
78964
78969
78963
78964
78955
78973
78990
79020
79000
79028
79044
79071
79067
79092
79101
79098
79113
79141
79158
79155
79174
79206
79210
79230
79249
79270
79298
79304
79314
79339
79362
79350
79357
79359
79402
79415
79405
79395
79349
79303
79230
79221
79217
79220
79216
79206
79203
79228
79265
79273
35423
79380
79407
79460
79467
79505
79512
79504
79548
79561
79596
79642
79652
79657
79676
79693
79715
79731
79751
79781
79788
79791
79833
79856
79860
79896
79902
79898
79901
79919
79941
79947
79952
79967
79947
79972
80013
79988
80012
80013
80016
80028
80046
80051
80056
80058
80071
80050
79980
79920
79869
79834
79829
79814
79815
79830
79827
79831
79804
79797
79817
79836
79827
79816
79804
79791
79766
79767
79770
79783
79772
79796
79774
79791
79793
79793
79796
79813
79778
79799
79806
79812
79805
79812
79812
79827
79816
79838
79837
79834
79838
79849
79869
79880
79887
79868
79866
79881
79864
79907
79894
79873
79818
79739
79707
79670
79623
79616
79617
79601
79587
79587
79559
79555
79575
79577
79582
79573
79568
79599
79572
79570
79569
79578
79573
79558
79570
79583
79596
79601
79596
79617
79617
79604
79627
79625
79630
79629
79658
79665
79657
79672
79673
79690
79662
79698
79690
79704
79708
79728
79721
79724
79709
79726
79728
79746
79735
79766
79760
79770
79776
79762
79697
79652
79562
79523
79505
79486
79466
79473
79455
79459
79426
79451
79463
79476
79474
79475
79476
79478
79470
79473
79449
79469
79465
79488
79457
79469
79478
79489
79504
79504
79516
79536
79540
79550
79550
79562
79565
79584
79588
79579
79588
79581
79580
79611
79609
79608
79621
79630
79636
79650
79643
79642
79650
79636
79647
79665
79670
79672
79704
79671
79645
79584
79497
79468
79417
79409
79409
79417
79428
79410
79410
79413
79408
79440
79448
79454
79468
79451
79459
79453
79448
79468
79454
79454
79470
79463
79469
79483
79511
79513
79499
79537
79527
79527
79551
79544
79551
79564
79592
79586
79582
79587
79572
79579
79581
79573
79562
79560
79545
79533
79502
79502
79512
79507
79482
79416
79393
79403
79392
79394
79405
79439
79446
79482
79477
79499
79550
79565
79610
79618
79641
79622
79602
79581
79571
79569
79579
79569
79528
79475
79506
79530
79535
79565
79607
79593
79564
79568
79546
79524
79533
79511
79510
79476
79496
79503
79509
79525
79563
79588
79606
79620
79598
79572
79512
79444
79432
79406
79398
79367
79338
79330
79295
79302
79299
79328
79345
79369
79356
79349
79350
79318
79295
79328
79291
79295
79291
79317
79319
79329
79345
79396
79441
79440
79460
79511
79535
79575
79579
79571
79591
79644
79645
79647
79683
79596
79494
79450
79429
79452
79474
79487
79457
79462
79456
79444
79466
79492
79537
79585
79602
79615
79641
79660
79648
79650
79649
79649
79672
79669
79672
79684
79693
79703
79680
79712
79611
79420
79255
79192
79283
79347
79299
79272
79179
79117
79127
79174
79429
79720
79530
79161
77832
76868
74086
74782
74113
76460
76576
76776
76388
76770
76679
76647
76544
76558
76431
76109
76187
76123
76334
76491
76507
76564
76749
77100
77490
77576
77193
76843
76714
76613
76527
76560
76557
76580
76565
76549
76350
76272
76234
76266
76301
76356
76354
76335
76280
76282
76095
76100
76141
76082
76107
76161
76179
76203
76243
76278
76306
76316
76259
76222
76175
76168
76146
76110
76063
75897
75892
75901
75882
75899
75918
75969
75937
75855
75712
75582
75306
75227
75194
75091
74938
74900
74866
74801
74849
74904
74943
74987
75075
75158
75275
75330
75277
75276
75276
75303
75358
36736
75567
75726
76018
76277
76490
76721
76892
77028
77192
77200
77197
77136
77160
77199
77221
77320
77525
77940
78150
77704
78007
78377
78441
78467
78432
78413
78106
76300
74277
74226
74511
75859
77531
77232
76911
76899
76746
76607
76558
76481
76320
76028
75813
75581
75440
75256
75127
75065
75132
75232
75205
75087
74714
74736
74835
75019
75195
75400
75632
76112
77062
77627
78118
78332
77924
77726
77602
77501
77477
77461
77442
77459
77497
77492
77410
77245
77138
77065
77032
76910
76776
76621
76504
76550
76570
76625
76665
76712
76733
76741
76746
76783
76827
76812
76665
76560
76555
76747
76946
77040
77113
77193
77212
77254
77276
77311
77324
77358
77336
77257
77159
77073
76998
76928
76934
76963
76994
77021
77032
77059
77091
77115
77133
77151
77186
77198
77198
77215
77228
77238
77244
77241
77213
77216
77218
77186
77148
77167
77176
77129
77097
77020
76948
76840
76597
76411
76257
76165
76098
76036
76050
76094
76149
76265
76374
76560
76733
77083
77670
78485
79477
80304
80187
80218
79935
80024
80139
80279
78963
79050
80010
77063
77128
80232
79897
79959
80072
79849
79691
79435
79233
79149
79071
79017
78988
78926
78868
78851
78301
79369
78714
78757
78910
78899
78852
78810
78719
78536
78703
78820
78811
78786
78783
78732
78685
78626
78506
78331
78016
77624
77347
77165
77070
77051
77094
77128
77122
77150
77182
77184
77151
77139
77076
77049
77026
77006
77010
77020
77025
76971
76966
76879
76794
76777
76813
76864
76786
76649
76440
76301
76225
76190
76138
76010
75983
76014
76211
76713
78294
77301
78377
78255
78017
76686
76785
77626
77329
77157
77027
76715
76414
75980
75478
75064
74761
74637
74573
74559
74551
74559
74505
74395
74382
74314
74269
74262
74283
74322
74396
74425
74417
74416
74371
74346
74330
74282
74222
74176
74149
74115
74083
74095
74082
74079
74077
74073
74009
73887
73846
73846
73806
73795
73786
73781
73786
73819
73871
73896
73938
73957
74316
74791
75114
75309
75581
75689
75615
75664
75723
75755
75726
75693
75702
75731
75728
75693
75582
75501
75470
75469
75470
75496
75499
75514
75499
75511
75538
75563
75598
75612
75626
75645
75657
75670
75727
75735
75745
75794
75815
75834
75854
75892
75905
75916
75855
75749
75709
75713
75684
75694
75687
75694
75677
75688
75702
75720
75767
75764
75736
75739
75735
75745
75765
75763
75790
75819
75832
75866
75884
75902
75940
75975
75961
75898
75814
75772
75771
75778
75804
75809
75825
75843
75848
75888
75928
75925
75961
75979
75995
76021
76051
76058
76097
76138
76196
76232
76214
76244
76234
76251
76237
76266
76278
76260
76259
76276
76270
76265
76267
76283
76305
76281
76168
76034
75937
75892
75704
75554
75110
74702
74230
73958
73891
74196
74431
74666
74971
75140
75248
75487
75760
76031
76178
76276
76323
76241
76146
76156
76161
76148
76121
76180
76195
76088
75912
75822
75830
75846
75829
75824
75854
75862
75912
75950
75988
76010
76044
76107
76179
76206
76209
76202
76257
76312
76351
76380
76390
76416
76427
76467
76469
76463
76395
76314
76229
76183
76132
76041
75966
75926
75878
75856
75862
75852
75907
75984
76005
76030
76077
76110
76145
76185
76204
76200
76245
76273
76315
76314
76368
76440
76471
76469
76450
76404
76389
76371
76355
76375
76343
76259
76139
76062
76034
75988
75954
75939
75978
75945
75950
75916
75930
75926
75932
75782
75361
75337
75390
75484
75553
75635
75727
75788
75782
75745
75782
75810
75808
75841
75884
75976
76026
76050
76060
76091
76110
76101
76121
76169
76191
76267
76292
76363
76423
76422
76436
76454
76482
76490
76501
76567
76628
76635
76585
76534
76499
76506
76505
76530
76541
76530
76559
76584
76607
76673
76728
76785
76814
76833
76828
76852
76849
76885
76870
76897
76904
76913
76961
76986
76984
77009
77015
77031
77042
77036
77037
77012
76894
76818
76776
76771
76774
76760
76737
76643
76579
76563
76586
76576
76453
76297
76234
76281
76331
76377
76556
76626
76660
76711
76739
76729
76758
76763
76807
76855
76865
76873
76870
76799
76754
76749
76761
76758
76789
76778
76760
76772
76784
76827
76866
76905
76932
76965
76970
76979
76991
77009
77007
77016
77036
77044
77064
77074
77058
77037
77071
77079
77082
77050
77028
76921
76700
76555
76473
76479
76429
76280
76183
76143
76141
76107
76096
76112
76150
76158
76169
76202
76253
76319
76387
76459
76530
76580
76646
76688
76710
76767
76817
76870
76879
76903
76907
76840
76791
76768
76770
76826
76844
76825
76842
76859
76867
76874
76901
76942
76951
76976
76965
76974
76974
76995
77009
77003
77031
77028
77027
77035
77052
77058
77042
77054
77056
77043
77021
77025
76913
76827
76746
76714
76687
76611
76579
76537
76545
76515
76524
76549
76529
76477
76438
76437
76408
76406
76409
76408
76420
76438
76439
76406
76406
76426
76437
76416
76437
76459
76452
76511
76518
76533
76487
76505
76518
76545
76550
76544
76576
76596
76611
76619
76688
76729
76741
76753
76761
76790
76789
76809
76829
76842
76849
76849
76870
76875
76868
76869
76905
76898
76906
76886
76752
76641
76484
76344
76255
76253
76264
76241
76231
76223
76292
76334
76311
76264
76303
76389
76463
76518
76592
76687
76714
76718
76667
76623
76613
76618
76636
76649
76664
76679
76636
76586
76526
76494
76481
76480
76500
76453
76445
76464
76489
76537
76575
76586
76590
76610
76626
76664
76652
76631
76654
76651
76668
76675
76687
76684
76687
76688
76735
76742
76681
76640
76508
76419
76401
76392
76388
76396
76392
76377
76371
76371
76372
76400
76405
76415
76411
76438
76451
76436
76411
76431
76456
76455
76425
76431
76470
76446
76398
76373
76397
76411
76403
76399
76371
76389
76758
76779
76803
76783
76775
76792
76801
76808
76799
76780
76743
76753
76765
76758
76758
76763
76757
76769
76770
76733
76697
76681
76665
76672
76699
76697
76738
76756
76781
76821
76872
76897
76935
76957
76987
76985
76990
76992
77012
76991
77001
77048
77082
77136
77130
77111
77072
77081
77064
77083
77118
77162
77139
77123
77097
77091
77080
77087
77085
77056
77040
77004
76976
76956
76930
76923
76871
76867
76837
76868
76856
76845
76806
76773
76765
76712
76720
76732
76738
76769
76768
76775
76769
76794
76820
76839
76845
76867
76838
76879
76930
76958
76965
77004
77076
77127
77147
77175
77177
77164
77166
77151
77192
77214
77252
77288
77333
77388
77415
77462
77487
77511
77545
77560
77575
77607
77615
77640
77624
77627
77621
77591
77610
77601
77564
77535
77504
77464
77459
77461
77475
77474
77479
77482
77458
77466
77419
77432
77422
77407
77423
77418
77396
77395
77401
77411
77401
77370
77358
77349
77315
77270
77231
77224
77215
77220
77238
77231
77250
77258
77280
77317
77324
77299
77320
77326
77345
77336
77353
77319
77306
77351
77377
77415
77452
77471
77431
77405
77411
77416
77447
77423
77378
77395
77417
77387
77390
77377
77352
77359
77345
77375
77378
77384
77380
77394
77390
77371
77365
77345
77271
77192
51390
77181
77184
77189
77185
77178
77229
77261
77275
77273
77266
77262
77259
77285
77303
77312
77287
77296
77312
77352
77353
77389
77385
77361
77318
77306
77306
77332
77366
77365
77389
77397
77461
77492
77528
77553
77565
77585
77603
77657
77698
77750
77752
77776
77797
77811
77799
77800
77745
77676
77650
77649
77646
77641
77677
77669
77659
77678
77650
77623
77614
77615
77590
77576
77569
77570
77577
77542
77565
77551
77557
77516
77474
77403
77378
77336
77308
77303
77305
77328
77302
77346
77328
77343
77330
77292
77274
77311
77311
77288
77293
77293
77308
77323
77352
77320
77302
77254
77207
77166
77156
77205
77253
77271
77318
77357
77359
77366
77396
77422
77443
77493
77452
77484
77487
77444
77458
77448
77436
77398
77355
77285
77257
77257
77184
77179
77187
77182
77160
77204
77232
77179
77135
77111
77108
77116
77106
77109
77108
77123
77115
77119
77089
77054
76962
76931
76910
76904
76894
76894
76876
76887
76911
76936
76957
76948
76951
77001
77018
77021
77060
77045
77096
77109
77139
77157
77168
77134
77111
77084
77087
77089
77143
77171
77194
77186
77188
77149
77058
76961
76873
76798
76730
76667
76619
76570
76515
76448
76416
76378
76314
76289
76272
76273
76323
76387
76447
76510
76592
76666
76746
76757
76811
76841
76885
76915
76907
76943
76942
76949
76948
76980
76989
76987
76906
76867
76848
76849
76848
76846
76841
76881
76924
76918
76935
76946
76973
76976
77001
77045
77045
77069
77092
77107
77128
77121
77163
77129
77074
77051
77064
77063
77065
77050
77041
77027
77006
76993
77050
77074
77095
77152
77161
77173
77204
77198
77217
77227
77203
77144
77075
77031
77030
77014
77039
77050
77054
77071
77095
77084
77034
77006
76995
77019
77009
77002
77023
77011
77022
77031
77072
77063
77033
76989
76985
76987
77017
77052
77086
77099
77137
77180
77209
77224
77244
77272
77272
77286
77329
77339
77359
77377
77399
77429
77420
77361
77313
77289
77270
77309
77332
77327
77318
77344
77314
77331
77340
77352
77360
77352
77338
77332
77310
77315
77311
77276
77276
77252
77178
77119
77125
77120
77156
77149
77138
77131
77146
77168
77137
77116
77101
77102
77091
77078
77068
77120
77144
77128
77134
77108
77081
77043
77027
77034
77050
77051
77078
77116
77121
77169
77197
77224
77240
77243
77261
77280
77305
77333
77354
77369
77403
77440
77417
77357
77278
77284
77303
77316
77329
77346
77385
77411
77409
77407
77344
77274
77260
77242
77234
77196
77162
77174
77163
77151
77100
77038
76997
76956
76931
76940
76946
76951
76929
76920
76957
76974
76952
76954
76921
76911
76924
76922
76921
76910
76878
76908
76889
76854
76788
76762
76763
76775
76773
76789
76788
76804
76848
76863
76902
76900
76929
76937
76951
76955
76962
77003
77000
77001
77038
77067
77058
77012
77007
77028
77060
77094
77102
77104
77163
77164
77142
77138
77088
77058
77013
76991
76956
76945
76937
76975
76984
77015
76974
76897
76886
76868
76874
76874
76902
76936
76939
76972
76967
77006
77035
77075
77077
77118
77110
77131
77132
77152
77159
77147
77135
77092
77020
76982
76985
77016
77022
77015
77036
77071
77073
77101
77087
77076
77071
77101
77105
77098
77100
77100
77115
77107
77101
77116
77068
77083
77072
53458
77100
77117
77136
77184
77225
77242
77203
77218
77274
77325
77338
77344
77340
77324
77345
77320
77310
77227
77144
77089
77045
77029
77009
77012
77037
77010
76995
77026
77016
77019
77002
77010
77015
77030
77041
77054
77051
77055
77045
76993
76916
76878
76893
76890
76879
76874
76899
76929
76958
76912
76909
76946
76931
76926
76907
76934
76961
76985
77001
77029
77041
77062
77028
76983
77003
77026
77048
77082
77108
77141
77179
77198
77205
77183
77195
77175
77173
77175
77183
77177
77132
77131
77079
77019
76956
76914
76889
76905
76926
76979
77003
77024
77017
77025
77016
77027
77024
77051
77043
77050
77061
77074
77084
77109
77107
77047
77000
76983
76949
76944
76955
76965
76963
76972
76957
76978
76980
76935
76913
76919
76936
76941
76934
76913
76941
76953
76947
76872
76845
76835
76822
76857
76865
76919
76940
76966
76978
77007
77023
77043
77037
77051
77050
77075
77085
77118
77119
77134
77074
76989
76874
76869
76909
76895
76926
76961
77010
76992
76968
76967
76947
76936
76920
76884
76834
76844
76793
76755
76712
76621
76546
76469
76417
76383
76380
76353
76348
76363
76366
76357
76384
76392
76381
76370
76356
76354
76372
76386
76387
76409
76384
76349
76309
76310
76301
76333
76324
76340
76366
76360
76394
76393
76380
76364
76378
76389
76373
76427
76433
76431
76446
76479
76448
76410
76388
76428
76458
76481
76531
76565
76570
76570
76534
76463
76356
76245
76162
76092
75971
75874
75892
75938
76011
76033
76026
76093
76159
76228
76266
76317
76366
76395
76401
76374
76397
76394
76382
76400
76458
76492
76534
76548
76578
76578
76581
76533
76502
76508
76547
76552
76561
76577
76637
76666
76701
76700
76693
76702
76735
76767
76767
76751
76756
76769
76808
76803
76742
76745
76742
76809
76849
76903
76929
76962
76987
77001
77014
77002
77006
77004
76989
77031
77085
77135
77175
77175
77174
77160
77092
77060
77061
77092
77097
77115
77131
77146
77126
77107
77038
76993
76929
76861
76749
76707
76681
76672
76622
76423
76479
76533
76636
76806
76966
77034
77114
77208
77245
77267
77300
77359
77389
77421
77446
77438
77484
77495
77526
77557
77592
77573
77523
77508
77469
77454
77481
77527
77565
77556
77549
77515
77529
77518
77526
77576
77568
77596
77579
77601
77620
77581
77559
77556
77564
77587
77606
77644
77660
77668
77719
77714
77760
77765
77781
77799
77798
77825
77840
77853
77866
77871
77846
77820
77833
77817
77821
77834
77863
77883
77913
77921
77917
77896
77871
77893
77873
77863
77851
77851
77832
77819
77804
77758
77672
77615
77586
77566
77576
77563
77596
77598
77605
77581
77573
77556
77561
77548
77546
77545
77563
77554
77538
77524
77474
77436
77397
77358
77365
77369
77388
77378
77389
77387
77367
77382
77364
77360
77344
77337
77358
77336
77298
77289
77276
77242
77189
77133
77120
77121
77149
77166
77201
77252
77258
77291
77302
77292
77284
77313
77323
77320
77313
77322
77324
77329
77325
77265
77240
77250
77243
77277
77278
77310
77362
77392
77422
77443
77455
77435
77438
77439
77442
77431
77433
77436
77441
77426
77406
77398
77373
77390
77423
77498
77614
77852
78086
78428
77915
77094
77192
77248
77902
78048
77920
77887
77877
77752
77571
77392
77388
77466
77588
77683
77785
77910
78037
77670
76878
76648
77201
77590
77970
77370
77205
77154
77141
77162
77190
77251
77282
77301
77316
77336
77312
77334
77335
77436
77238
77194
77297
77356
77425
77484
77535
77585
77619
77642
77695
77746
77805
77809
77812
77801
77757
77743
77796
77842
77862
77896
77850
77850
77863
77889
77870
77849
77912
78182
78245
78290
78332
78354
78386
78368
78038
77769
77681
77601
77641
77597
77517
77490
77446
77372
77247
77210
77218
77359
77512
77606
77717
77844
77658
77873
77978
77983
78011
78005
78043
78072
78044
78129
78172
78237
78310
78357
78398
78455
78476
78527
78583
78608
78658
78711
78797
78850
78909
78908
78867
78846
78829
78865
78888
78935
78950
78996
79043
79069
79100
79120
79151
79151
79171
79209
79236
79262
79257
79282
79287
79271
79204
79156
79149
79146
79139
79164
79172
79199
79231
79248
79277
79257
79282
79268
79294
79302
79336
79357
79382
79393
79394
79337
79245
79210
79171
79134
79128
79077
79049
79046
79036
79027
78984
78980
78938
78879
78846
78852
78838
78817
78776
78687
78549
78368
78214
78021
77923
77849
77797
77777
77808
77811
77780
77747
77758
77736
77711
77691
77621
77594
77551
77516
77460
77352
77183
77067
76990
76944
76906
76862
76833
76781
76776
76741
76712
76653
76608
76582
76561
76527
76529
76385
76236
76128
75936
75737
75462
75290
75246
75845
77130
79171
78037
77614
78210
78434
78209
77764
77317
77054
76893
76678
76489
76349
76057
76010
76007
75967
75938
76128
76377
75862
75392
75496
75394
76224
75632
76024
77537
76875
76960
77226
76878
76817
77097
77161
77313
77427
77061
77620
77515
77259
77282
77205
77174
77194
77184
77166
77130
76999
77036
77114
77175
77218
77285
77314
77392
77502
77638
77637
77705
77736
77785
77854
77832
77726
77644
77631
77643
77698
77719
77772
77843
77968
78064
78160
78228
78328
78365
78424
78475
78530
78577
78600
78644
78653
78688
78707
78639
78534
78478
78415
78421
78436
78446
78463
78482
78526
78569
78612
78688
78726
78718
78722
78732
78772
78803
78830
78822
78850
78883
78908
78936
78961
79009
79015
79013
78917
78865
78856
78857
78866
78865
78883
78915
78927
78937
78977
78990
79007
79015
79013
79041
79057
79080
79106
79134
79147
79164
79134
79090
79053
79017
79038
79044
79051
79077
79088
79098
79106
79084
78997
78918
78879
78858
78867
78905
78934
78951
79016
79071
79178
79253
79265
79269
79258
79210
79196
79188
79200
79244
79242
79272
79293
79317
79305
79299
79298
79321
79355
79380
79416
79444
79446
79485
79500
79469
79420
79343
79311
79319
79339
79357
79383
79385
79381
79398
79434
79435
79434
79473
79513
79521
79571
79540
79547
79539
79602
79645
79677
79685
79716
79724
79729
79715
79728
79745
79740
79768
79837
79864
79862
79687
79716
79571
79523
79439
79382
79365
79364
79409
79509
79533
79526
79534
79530
79531
79551
79589
79605
79629
79633
79653
79644
79630
79657
79638
79663
79699
79715
79735
79737
79779
79773
79824
79833
79860
79874
79929
79913
79909
79893
79824
79777
79781
79758
79768
79798
79826
79823
79845
79867
79893
79881
79920
79901
79910
79904
79901
79921
79962
79996
79998
80011
80005
80015
80033
80027
80055
80052
80049
80066
80090
80086
80091
80106
80103
80143
80169
80169
80201
80219
80185
80168
80122
80064
80063
80072
80088
80105
80123
80151
80169
80163
80167
80137
80092
80048
80016
80007
80014
80018
80024
80023
80027
80047
80025
80018
80019
80053
80056
80041
80032
80042
80046
80051
80041
80041
80066
80078
80073
80089
80106
80105
80088
80042
79990
79940
79935
79922
79958
79974
79999
80035
80065
80092
80104
80143
80172
80191
80197
80209
80238
80242
80266
80272
80285
80282
80305
80298
80295
80326
80314
80328
80349
80359
80387
80379
80396
80412
80407
80433
80453
80470
80443
80401
80319
80288
80276
80275
80298
80290
80293
80322
80347
80345
80365
80366
80370
80372
80366
80372
80374
80397
80386
80402
80395
80420
80411
80435
80427
80439
80408
80425
80451
80431
80476
80475
80470
80458
80485
80492
80470
80458
80412
80354
80310
80284
80253
80263
80255
80281
80281
80294
80325
80346
80349
80355
80348
80382
80365
80369
80371
80386
80391
80403
80404
80399
80401
80402
80410
80437
80442
80442
80446
80448
80453
80469
80482
80474
80481
80482
80496
80497
80523
80526
80512
80442
80395
80331
80312
80286
80287
80283
80283
80292
80301
80300
80339
80328
80302
80326
80323
80320
80291
80309
80323
80332
80339
80345
80346
80342
80347
80362
80361
80367
80365
80378
80375
80387
80395
80391
80381
80416
80406
80405
80395
80433
80441
80443
80404
80363
80317
80234
80203
80162
80178
80174
80161
80183
80170
80192
80216
80207
80231
80222
80193
80213
80209
80231
80239
80246
80262
80288
80279
80270
80268
80280
80310
80313
80327
80319
80319
80326
80342
80347
80403
80387
80408
80428
80429
80448
80440
80462
80451
80448
80441
80376
80297
80258
80208
80201
80189
80202
80187
80190
80201
80240
80241
80238
80246
80260
80236
80222
80233
80234
80245
80247
80246
80272
80257
80279
80277
80300
80313
80316
80309
80324
80342
80346
80343
80356
80363
80369
80398
80377
80383
80397
80430
80413
80389
80311
80235
80182
80157
80141
80149
80147
80143
80166
80169
80193
80203
80209
80205
80191
80197
80186
80190
80198
80213
80225
80249
80230
80241
80240
80267
80266
80279
80311
80326
80306
80323
80365
80371
80389
80394
80405
80425
80434
80369
80293
80207
80168
80173
80142
80136
80158
80153
80172
80178
80176
80163
80191
80182
80196
80189
80202
80194
80208
80213
80226
80197
80230
80235
80256
80276
80283
80305
80294
80319
80321
80317
80344
80348
80379
80420
80399
80384
80350
80241
80199
80149
80094
80079
80073
80061
80076
80072
80077
80066
80071
80063
80076
80077
80054
80056
80061
80058
80061
80071
80086
80071
80072
80102
80073
80099
80098
80086
80098
80096
80122
80128
80096
80121
80113
80134
80129
80120
80143
80144
80161
80174
80186
80148
80074
79983
79958
79910
79880
79895
79880
79881
79897
79891
79912
79925
79928
79929
79899
79898
79878
79878
79864
79862
79855
79859
79855
79837
79837
79834
79843
79836
79871
79858
79866
79884
79890
79917
79914
79932
79933
79968
79984
79953
80001
79992
79988
79988
80039
79988
79947
79878
79825
79737
79716
79711
79726
79733
79710
79749
79765
79765
79783
79785
79791
79784
79773
79786
79789
79801
79817
79817
79834
79849
79834
79879
79865
79886
79899
79924
79923
79920
72146
79949
79963
79981
79983
80006
80009
80017
80030
80045
80025
79953
79880
79836
79784
79742
79755
79778
79759
79802
79805
79801
79855
79854
79831
79853
79846
79867
79857
79842
79852
79874
79889
79902
79911
79917
79928
79934
79950
79951
79952
79972
80004
80014
80032
80023
80027
80056
80033
79994
79909
79849
79804
79762
79762
79785
79810
79798
79797
79835
79843
79868
79855
79857
79869
79877
79883
79878
79903
79911
79905
79948
79952
79942
79950
79956
79961
79989
80007
79997
80007
80030
80033
80050
80064
80079
80007
79925
79844
79804
79791
79777
79784
79794
79815
79822
79814
79842
79847
79843
79838
79849
79864
79856
79865
79882
79882
79889
79901
79906
79918
79934
79962
79947
80000
79994
79982
79989
79998
80024
80034
80045
80067
80077
80041
79956
79881
79809
79801
79782
79812
79807
79825
79824
79833
79837
79857
79868
79884
79882
79879
79867
79906
79901
79914
79918
79937
79942
79974
79980
79977
79993
80015
80022
80060
80063
80095
80086
80097
80108
80115
80129
80168
80140
80164
80174
80176
80196
80197
80198
80225
80218
80219
80168
80092
80002
79949
79909
79893
79886
79908
79928
79930
79934
79948
79954
79974
79971
79961
79963
79971
79971
79964
79974
79998
80001
80002
79997
80018
80032
80040
80064
80053
80077
80070
80087
80124
80140
80133
80143
80173
80158
80154
80216
80227
80221
80217
80206
80241
80251
80258
80255
80253
80281
80231
80134
80059
79975
79937
79925
79905
79907
79913
79922
79925
79927
79944
79967
79971
79975
79948
79968
79966
79967
79974
79977
79971
80002
80014
80000
79994
80013
80008
80042
80030
80045
80053
80057
80049
80069
80060
80085
80077
80088
80096
80104
80102
80098
80136
80102
80114
80134
80117
80124
80151
80157
80101
80018
79916
79866
79822
79819
79794
79798
79822
79812
79811
79837
79846
79854
79867
79874
79884
79867
79847
79875
79880
79857
79891
79924
79922
79932
79933
79956
79953
79975
79999
79993
80000
80005
80020
80037
80022
80049
80056
80069
80067
80080
80079
80100
80096
80108
80129
80152
80134
80124
80041
79967
79924
79866
79839
79840
79825
79844
79845
79871
79874
79894
79923
79907
79919
79922
79929
79909
79927
79935
79922
79948
79956
79956
79960
79977
79983
79984
80002
80017
80034
80023
80024
80062
80062
80060
80092
80082
80089
80114
80141
80082
79991
79927
79839
79824
79811
79815
79828
79846
79827
79862
79864
79893
79889
79896
79904
79920
79899
79895
79917
79933
79899
79939
79956
79961
79946
79977
79975
80017
80006
80021
80036
80026
80068
80061
80077
80082
80087
80092
80024
79932
79837
79817
79778
79770
79779
79782
79796
79811
79802
79842
79824
79873
79856
79858
79848
79842
79855
79865
79888
79892
79861
79895
79908
79922
79940
79936
79964
79980
79975
79983
79981
80013
80022
80011
80032
80031
80034
80046
80056
80019
79941
79844
79758
79721
79709
79716
79705
79720
79711
79732
79750
79774
79775
79807
79791
79774
79792
79794
79810
79809
79813
79836
79843
79861
79866
79887
79874
79910
79906
79918
79941
79963
79966
79979
79973
80018
80025
80052
80056
80047
80055
80079
80091
80099
80120
80130
80128
80142
80148
80159
80167
80136
80031
79916
79867
79822
79813
79807
79810
79810
79825
79827
79812
79835
79836
79840
79847
79825
79826
79832
79827
79821
79818
79814
79830
79830
79845
79837
79844
79874
79872
79884
79880
79887
79888
79900
79934
79953
79936
79963
79964
79981
79980
79990
80016
80013
80031
80039
80050
80037
80072
80031
79963
79884
79839
79785
79773
79763
79767
79800
79798
79831
79806
79823
79857
79846
79850
79860
79839
79859
79856
79859
79853
79885
79886
79896
79909
79913
79920
79936
79956
79966
79967
79960
79987
79990
80006
80021
80039
80051
80047
80083
80081
80054
80014
79935
79851
79810
79783
79773
79774
79800
79829
79818
79842
79840
79871
79867
79878
79863
79865
79858
79847
79858
79852
79862
79884
79885
79888
79887
79899
79915
79937
79931
79946
79941
79962
79962
79958
79969
79982
79935
79821
79739
79696
79665
79643
79681
79667
79689
79668
79685
79691
79676
79691
79690
79689
79651
79645
79676
79650
79664
79663
79652
79674
79685
79672
79668
79672
79675
79684
79675
79677
79695
79688
79720
79698
79707
79708
79647
79551
79475
79442
79409
79411
79403
79391
79394
79407
79410
79410
79446
79428
79439
79455
79417
79440
79432
79439
79446
79457
79490
79473
79499
79486
79506
79507
79497
79524
79537
79543
79572
79567
79573
79602
79588
79618
79613
79621
79647
79647
79658
79688
79690
79696
79731
79721
79722
79731
79683
79619
79517
79450
79435
79410
79420
79409
79426
79445
79456
79457
79472
79487
79518
79501
79502
79494
79488
79535
79531
79531
79545
79565
79557
79565
79565
79581
79582
79613
79621
79631
79638
79659
79668
79670
79692
79706
79715
79726
79738
79761
79779
79781
79797
79799
79804
79818
79830
79860
79868
79883
79830
79779
79700
79629
79616
79604
79605
79613
79604
79624
79652
79643
79646
79659
79683
79677
79698
79681
79684
79663
79684
79671
79675
79707
79705
79718
79723
79727
79726
79756
79758
79757
79766
79776
79802
79782
79816
79826
79820
79839
79825
79823
79862
79882
79871
79878
79883
79908
79873
79836
79745
79693
79661
79656
79648
79676
79678
79676
79688
79710
79718
79726
79728
79725
79733
79730
79738
79736
79736
79737
79766
79755
79756
79757
79776
79776
79783
79805
79794
79808
79804
79803
79836
79840
79824
79841
79860
79876
79856
79794
79727
79669
79622
79631
79624
79629
79645
79658
79663
79673
79648
79676
79662
79685
79678
79653
79668
79662
79670
79673
79679
79702
79720
79688
79711
79712
79714
79698
79720
79733
79745
79761
79735
79767
79726
79667
79598
79537
79518
79509
79494
79503
79510
79503
79514
79533
79527
79535
79549
79535
79501
79532
79528
79518
79514
79534
79531
79536
79539
79579
79559
79538
79550
79566
79563
79560
79588
79595
79615
79599
79573
79508
79416
79362
79338
79352
79339
79340
79348
79352
79335
79345
79358
79373
79371
79356
79360
79338
79344
79352
79364
79372
79375
79364
79392
79383
79390
79397
79409
79403
79423
79433
79447
79461
79457
79483
79490
79499
79501
79503
79509
79517
79531
79566
79540
79555
79562
79581
79613
79597
79597
79605
79557
79444
79378
79343
79292
79283
79270
79280
79304
79295
79314
79328
79329
79331
79345
79337
79365
79358
79330
79339
79359
79362
79358
79371
79389
79386
79392
79384
79408
79401
79430
79420
79428
79438
79443
79440
79474
79480
79487
79489
79476
79509
79512
79527
79518
79526
79529
79543
79533
79525
79543
79567
79554
79513
79425
79344
79303
79298
79285
79272
79281
79291
79306
79302
79315
79337
79336
79334
79346
79332
79328
79337
79339
79357
79331
79336
79353
79364
79363
79360
79344
79348
79351
79384
79372
79378
79401
79403
79428
79439
79457
79478
79495
79515
79531
79516
79553
79541
79560
79570
79576
79561
79536
79474
79411
79372
79335
79339
79329
79339
79364
79365
79378
79389
79385
79395
79426
79410
79413
79399
79409
79409
79422
79441
79434
79450
79459
79460
79469
79477
79502
79507
79503
79501
79527
79548
79542
79549
79553
79561
79583
79567
79571
79524
79454
79395
79366
79342
79361
79367
79394
79391
79379
79403
79430
79451
79435
79449
79423
79428
79417
79430
79443
79442
79481
79469
79482
79496
79478
79491
79503
79516
79522
79527
79531
79540
79563
79521
79475
79389
79334
79296
79290
79308
79313
79311
79331
79334
79350
79344
79359
79361
79375
79353
79350
79352
79354
79366
79369
79378
79393
79405
79398
79411
79401
79422
79438
79437
79454
79461
79482
79495
79402
79316
79266
79235
79219
79231
79217
79237
79240
79231
79239
79265
79259
79296
79267
79252
79250
79254
79242
79239
79279
79274
79290
79302
79304
79304
79319
79299
79332
79331
79350
79343
79369
79370
79382
79378
79394
79408
79414
79425
79418
79448
79463
79450
79458
79462
79502
79452
79494
79494
79486
79384
79312
79255
79197
79190
79188
79187
79182
79196
79197
79226
79216
79236
79232
79246
79252
79234
79252
79238
79252
79244
79259
79245
79245
79266
79271
79268
79276
79313
79285
79318
79294
79320
79331
79346
79356
79374
79380
79374
79384
79407
79386
79398
79422
79425
79428
79439
79472
79434
79437
79377
79286
79232
79202
79170
79153
79146
79158
79156
79195
79183
79196
79207
79221
79231
79234
79222
79231
79228
79234
79231
79252
79254
79281
79291
79296
79306
79328
79326
79324
79344
79353
79360
79378
79393
79383
79386
79383
79385
79415
79429
79422
79424
79436
79439
79454
79459
79432
79409
79319
79266
79214
79208
79214
79213
79226
79214
79235
79237
79279
79274
79293
79269
79268
79262
79263
79268
79246
79267
79271
79280
79276
79287
79299
79306
79315
79320
79323
79337
79367
79348
79368
79378
79392
79372
79405
79421
79384
79297
79232
79175
79144
79149
79148
79153
79172
79190
79180
79192
79208
79209
79217
79222
79237
79227
79202
79213
79204
79224
79232
79237
79229
79241
79263
79257
79277
79282
79288
79293
79297
79312
79292
79249
79164
79085
79021
79000
79000
79023
79018
79041
79039
79039
79052
79082
79072
79072
79058
79062
79070
79064
79068
79077
79092
79119
79104
79091
79115
79125
79121
79144
79151
79159
79174
79165
79186
79125
79030
78928
78846
78825
78821
78819
78820
78812
78834
78829
78846
78860
78885
78883
78868
78871
78866
78860
78868
78873
78904
78914
78918
78921
78930
78957
78966
78953
78969
78973
78966
78993
79006
79020
79041
79051
79064
79070
79088
79095
79125
79147
79152
79165
79167
79208
79202
79212
79217
79218
79218
79153
79036
78912
78836
78826
78795
78807
78808
78786
78794
78804
78806
78838
78842
78868
78867
78860
78853
78864
78875
78872
78889
78900
78904
78930
78945
78937
78955
78978
78980
79017
79013
79041
79053
79072
79084
79089
79103
79131
79146
79154
79144
79168
79176
79173
79192
79213
79239
79230
79244
79212
79132
79029
78968
78928
78916
78926
78912
78928
78923
78918
78924
78958
78963
78993
79008
78991
78983
78972
78979
78991
78982
78993
78998
79008
79020
79032
79048
79028
79047
79045
79059
79069
79088
79098
79087
79132
79133
79120
79144
79157
79169
79145
79170
79161
79164
79176
79194
79167
79112
79019
78909
78865
78833
78818
78809
78850
78867
78849
78844
78816
78809
78777
78753
78709
78698
78658
78643
78630
78599
78602
78570
78554
78548
78521
78509
78555
78577
78619
78669
78738
78771
78805
78809
78896
78929
78936
79020
78975
78865
78372
78085
78163
78184
78473
78626
78804
79149
79402
79240
79269
79271
79257
79198
79110
79019
78972
78925
78892
78864
78834
78800
78776
78727
78736
78715
78725
78668
78488
78631
78370
78302
77687
77790
77952
77770
76951
76931
76829
76657
76796
76171
76422
76181
75677
75560
75175
74292
74595
75161
75298
75351
75293
75278
75318
75317
75302
75287
75264
75243
75201
75162
75120
75073
74954
74796
74639
74486
74389
74295
74236
74179
74088
74045
74001
73971
73973
73975
73960
73812
73710
73617
73551
73507
73438
73418
73399
73378
73358
73316
73305
73298
73314
73307
73299
73371
73432
73475
73410
73316
73307
73288
73282
73311
73330
73340
73381
73376
73406
73434
73451
73474
73476
73489
73492
73498
73506
73508
73513
73520
73537
73560
73558
73560
73579
73588
73588
73610
73602
73638
73621
73641
73649
73664
73653
73654
73651
73652
73651
73663
73670
73689
73676
73673
73714
73707
73741
73738
73738
73792
73805
73823
73860
73874
73874
73809
73690
73590
73545
73546
73542
73550
73557
73586
73585
73594
73588
73629
73644
73626
73624
73616
73622
73602
73613
73604
73617
73616
73653
73648
73646
73661
73666
73680
73696
73725
73724
73733
73745
73752
73750
73770
73776
73789
73786
73807
73828
73828
73848
73869
73867
73878
73855
73789
73686
73618
73569
73576
73586
73567
73583
73603
73614
73614
73642
73633
73640
73642
73638
73622
73591
73598
73602
73604
73613
73635
73644
73644
73655
73641
73680
73669
73665
73693
73705
73720
73734
73717
73738
73749
73751
73743
73760
73681
73596
73518
73455
73474
73451
73464
73464
73475
73480
73490
73487
73488
73504
73487
73487
73464
73474
73492
73498
73509
73515
73497
73524
73541
73545
73550
73565
73588
73596
73593
73589
73598
73608
73621
73603
73596
73565
73463
73394
73326
73284
73265
73265
73270
73272
73263
73270
73288
73303
73311
73317
73301
73269
73272
73260
73277
73285
73302
73299
73315
73327
73325
73339
73355
73365
73384
73388
73399
73397
73410
73426
73417
73450
73440
73447
73466
73465
73471
73494
73487
73494
73493
73451
73381
73270
73190
73167
73150
73142
73152
73142
73158
73129
73165
73166
73190
73189
73189
73190
73163
73155
73171
73158
73168
73193
73193
73199
73203
73193
73204
73216
73227
73243
73249
73265
73286
73271
73308
73317
73345
73362
73353
73383
73403
73412
73395
73435
73431
73466
73466
73475
73462
73463
73477
73446
73339
73246
73179
73125
73128
73100
73102
73101
73120
73133
73134
73139
73150
73168
73165
73170
73146
73156
73159
73169
73170
73170
73167
73181
73176
73176
73181
73202
73209
73230
73260
73264
73285
73291
73332
73326
73348
73380
73395
73415
73435
73459
73449
73473
73493
73484
73486
73499
73517
73513
73501
73427
73322
73259
73191
73167
73177
73178
73189
73188
73198
73191
73186
73213
73214
73208
73206
73196
73176
73188
73175
73183
73183
73207
73207
73217
73212
73236
73240
73235
73251
73262
73289
73276
73288
73284
73295
73325
73308
73314
73299
73316
73310
73323
73302
73249
73141
73074
73032
72996
73001
73002
72998
73025
73004
73026
73030
73054
73057
73062
73046
73040
73020
73032
73041
73028
73046
73070
73060
73079
73091
73076
73098
73106
73126
73114
73119
73147
73135
73143
73152
73160
73108
73025
72943
72887
72832
72850
72861
72854
72854
72852
72856
72855
72858
72886
72875
72879
72858
72839
72834
72854
72842
72846
72882
72877
72894
72889
72906
72920
72936
72933
72954
72950
72962
72970
72989
72989
72990
72977
72885
72791
72705
72673
72668
72655
72677
72650
72659
72666
72664
72667
72659
72688
72675
72682
72680
72666
72671
72691
72689
72689
72711
72718
72724
72723
72750
72754
72764
72770
72802
72811
72812
72831
72845
72859
72867
72875
72900
72909
72925
72924
72935
72952
72973
72982
72988
73011
73002
72950
72838
72744
72676
72648
72653
72637
72646
72642
72655
72663
72665
72675
72687
72711
72702
72672
72715
72689
72698
72709
72705
72705
72755
72744
72777
72792
72791
72801
72828
72857
72853
72851
72872
72898
72904
72924
72941
72949
72956
72973
72991
72997
72994
73039
73053
73080
73129
73136
73136
73160
73178
73123
73042
72935
72860
72817
72819
72839
72810
72846
72820
72819
72841
72856
72854
72894
72887
72868
72872
72846
72869
72891
72886
72902
72906
72922
72922
72937
72969
72955
72981
72971
73004
72989
73019
73038
73028
73060
73056
73082
73073
73091
73111
73118
73130
73110
73147
73138
73139
73112
73055
72942
72888
72861
72831
72841
72851
72876
72884
72877
72904
72896
72926
72925
72925
72925
72900
72913
72916
72916
72915
72945
72925
72934
72941
72945
72952
72970
72979
72994
72983
73002
73031
73018
73026
73036
73049
73033
73071
72993
72930
72839
72778
72766
72749
72761
72787
72798
72799
72798
72809
72808
72827
72818
72835
72817
72813
72815
72810
72812
72825
72818
72825
72842
72847
72843
72857
72862
72870
72885
72882
72906
72901
72902
72882
72788
72693
72634
72588
72597
72587
72612
72608
72582
72579
72599
72594
72619
72645
72622
72630
72632
72606
72622
72634
72650
72653
72671
72659
72693
72704
72682
72715
72706
72722
72753
72749
72754
72765
72764
72776
72787
72819
72797
72826
72837
72852
72824
72749
72653
72581
72542
72501
72520
72500
72494
72514
72518
72506
72523
72542
72563
72572
72555
72551
72553
72541
72559
72562
72590
72611
72595
72617
72613
72636
72662
72680
72664
72690
72695
72698
72710
72734
72730
72746
72753
72776
72782
72797
72785
72791
72803
72795
72728
72698
72645
72624
72647
72686
72714
72656
72608
72556
72542
72522
72545
72528
72566
72556
72553
72565
72581
72605
72643
72670
72657
72673
72685
72695
72708
72739
72752
72770
72785
72804
72807
72819
72828
72833
72833
72830
72865
72873
72880
72905
72924
72928
72953
72961
72970
72995
73001
72991
72994
72965
72923
72851
72684
72384
72063
71754
71551
71496
71447
71537
71507
71515
71511
71566
71600
71578
71563
71525
71495
71450
71428
71465
71534
71493
71550
71596
71464
70701
71070
71475
72384
72741
73384
73972
74253
74242
74344
74334
74218
74018
73601
73156
73149
73680
74139
74455
74527
74575
74766
74500
73108
73077
73462
73693
73842
73918
73958
73956
73956
73892
73874
73836
73840
73844
73913
74023
74307
73657
73638
73805
73771
73753
73740
73731
73661
73541
73378
73219
73138
73082
73057
73030
73007
72964
72982
72999
72994
73018
73050
73065
73071
73061
73093
73102
73099
73106
73136
73164
73189
73200
73210
73242
73265
73245
73238
73221
73210
73181
73081
72990
72944
72938
72934
72930
72952
72972
72981
73006
73003
73059
73075
73107
73118
73121
73128
73131
73146
73138
73166
73157
73212
73226
73252
73274
73288
73324
73350
73372
73382
73435
73451
73487
73506
73522
73541
73570
73547
73555
73559
73574
73553
73566
73605
73636
73615
73601
73630
73643
73675
73686
73723
73742
73777
73822
73848
73852
73765
73648
73561
73509
73488
73499
73521
73533
73548
73569
73563
73598
73625
73629
73676
73666
73654
73662
73647
73657
73674
73692
73690
73674
73682
73694
73723
73747
73772
73791
73819
73830
73831
73879
73908
73944
73943
73974
74012
74027
74050
74063
74124
74141
74154
74183
74217
74223
74232
74194
74124
74016
73949
73924
73928
73925
73950
73954
73974
74008
74004
74027
74043
74074
74073
74053
74049
74057
74084
74104
74109
74122
74108
74135
74131
74155
74176
74195
74202
74226
74244
74266
74264
74309
74305
74310
74329
74383
74329
74228
74130
74073
74027
74024
74052
74041
74047
74059
74065
74075
74094
74094
74114
74096
74049
74026
74027
74017
74043
74062
74076
74072
74074
74059
74072
74100
74096
74092
74113
74116
74127
74142
74150
74175
74220
74212
74201
74098
73953
73885
73843
73812
73801
73799
73808
73771
73758
73757
73771
73802
73807
73831
73853
73828
73820
73829
73860
73878
73901
73928
73974
74010
74025
74061
74096
74108
74131
74117
74133
74148
74153
74176
74188
74199
74211
74216
74239
74256
74278
74282
74297
74343
74348
74339
74385
74418
74437
74425
74329
74196
74085
74006
73973
73961
73962
73961
73991
73998
74019
74026
74074
74077
74095
74101
74105
74101
74082
74105
74124
74149
74163
74164
74191
74211
74232
74250
74274
74316
74350
74354
74381
74428
74454
74484
74513
74534
74577
74578
74617
74610
74617
74653
74669
74686
74705
74694
74714
74739
74719
74662
74532
74457
74367
74303
74303
74299
74291
74308
74308
74315
74308
74323
74348
74355
74366
74357
74351
74349
74352
74343
74344
74380
74380
74416
74402
74408
74421
74441
74453
74481
74503
74511
74529
74568
74576
74574
74594
74615
74603
74614
74622
74651
74654
74660
74582
74461
74337
74250
74202
74193
74182
74181
74181
74206
74207
74205
74227
74243
74246
74245
74215
74225
74199
74199
74197
74217
74221
74246
74249
74262
74272
74283
74298
74306
74346
74321
74351
74357
74367
74381
74397
74405
74363
74241
74131
74042
73982
73977
73959
73967
73945
73947
73954
73967
73970
73975
73989
73990
73956
73944
73956
73962
73964
74003
73987
73997
74026
74024
74039
74092
74103
74098
74119
74142
74152
74162
74178
74210
74234
74249
74238
74231
74270
74279
74234
74142
73987
73868
73816
73785
73792
73789
73769
73785
73783
73794
73785
73830
73846
73849
73868
73849
73856
73865
73869
73883
73891
73919
73934
73954
73964
73975
74000
74018
74029
74050
74093
74099
74103
74141
74168
74186
74217
74223
74262
74280
74298
74298
74312
74346
74336
74357
74380
74411
74415
74439
74444
74378
74257
74121
74033
74000
73979
73980
73988
73996
74012
74013
74034
74034
74068
74079
74089
74074
74067
74084
74089
74084
74098
74105
74124
74151
74166
74194
74200
74225
74239
74261
74270
74288
74315
74316
74343
74362
74377
74408
74404
74440
74444
74451
74477
74467
74460
74473
74496
74489
74413
74275
74152
74070
74030
73991
73984
73966
73946
73926
73938
73941
73947
73975
73986
73991
73979
73953
73970
73988
74017
74054
74055
74070
74079
74071
74029
74013
73926
73860
73820
73749
73720
73697
73797
73856
73843
73798
73629
73216
73242
73320
73290
73248
73133
73054
72988
72924
72885
72836
72813
72786
72765
72769
72752
72717
72665
72599
72533
72435
72374
72336
72319
72321
72263
72191
72167
72144
72129
72124
72128
72099
72105
72098
72126
72131
72141
72152
72166
72120
72052
71960
71932
71926
71887
71879
71843
71854
71840
71844
71941
72046
72124
72145
72070
72042
72069
72084
72126
72129
72130
72152
72181
72184
72200
72240
72286
72387
72441
72529
72574
72614
72663
72699
72684
72631
72547
72497
72497
72483
72493
72490
72507
72494
72515
72542
72564
72599
72643
72669
72675
72716
72722
72739
72742
72781
72790
72819
72847
72853
72871
72882
72944
72978
72979
73001
73003
73024
73033
72984
72880
72817
72756
72727
72724
72720
72719
72715
72726
72731
72741
72778
72823
72851
72845
72863
72844
72861
72873
72849
72855
72872
72900
72913
72903
72923
72936
72951
72993
73025
73053
73076
72984
72880
72826
72793
72772
72803
72811
72825
72830
72853
72897
72912
72950
72957
72919
72852
72803
72828
72843
72852
72872
72891
72963
73008
73063
73060
73053
73066
73118
73156
73198
73240
73268
73307
73269
73173
73143
73140
73177
73220
73266
73334
73425
73461
73527
73568
73603
73655
73675
73730
73767
73803
73815
73847
73913
73951
74017
74060
74065
74101
74137
74185
74211
74208
74242
74229
74221
74160
74068
73954
73895
73896
73903
73949
73976
74002
74020
74057
74069
74064
74103
74103
74119
74135
74136
74163
74202
74241
74270
74316
74323
59478
74306
74295
74227
74144
74065
73929
73756
73558
73459
73433
73484
73549
73627
73666
73669
73707
73756
73775
73808
73820
73807
73812
73822
73837
73848
73821
73848
73866
73838
73838
73818
73733
73709
73681
73646
73540
73356
73167
73034
72932
72883
72900
72916
72945
72931
72913
72890
72875
72896
72945
72993
73045
73068
73076
73094
73140
73222
73272
73338
73384
73418
73490
73536
73597
73625
73690
73746
73769
73761
73704
73648
73630
73646
73701
73798
73879
74002
74104
74217
74291
74385
74461
74507
74556
74573
74582
74584
74575
74561
74552
74530
74558
74552
74558
74578
74584
74625
74629
74668
74695
74708
74706
74669
74577
74447
74338
74257
74202
74183
74152
74066
74041
74002
74005
74012
74015
74051
74025
74045
74084
74070
74066
74089
74081
74066
74054
74006
73944
73921
73883
73872
73849
73867
73868
73840
73807
73816
73792
73790
73853
73952
74017
74069
74131
74165
74223
74279
74338
74390
74400
74411
74402
74424
74429
74452
74492
74459
74460
74484
74488
74472
74456
74469
74453
74385
74208
74073
73938
73798
73718
73663
73637
73600
73604
73667
73673
73660
73625
73657
73662
73671
73708
73779
73796
73847
73878
73907
73946
73991
74027
74094
74139
74178
74187
74198
74196
74149
74039
73958
73927
73969
73979
73982
74025
74054
74102
74139
74202
74218
74241
74257
74277
74274
74311
74332
74348
74365
74405
74401
74393
74390
74398
74391
74413
74428
74440
74344
74195
74041
73911
73769
73670
73616
73540
73466
73387
73326
73332
73344
73368
73342
73300
73295
73288
73299
73308
73341
73333
73329
73346
73372
73366
73369
73380
73428
73464
73421
73376
73362
73431
73442
73466
73503
73531
73566
73639
73710
73754
73767
73802
73783
73778
73777
73807
73805
73799
73802
73799
73826
73825
73842
73832
73848
73836
73847
73818
73707
73573
73507
73470
73460
73467
73502
73491
73510
73516
73516
73535
73545
73565
73580
73591
73583
73555
73555
73581
73589
73610
73638
73642
73674
73655
73682
73712
73697
73634
73521
73448
73429
73412
73470
73493
73532
73547
73576
73621
73626
73676
73674
73702
73711
73703
73711
73708
73715
73740
73775
73782
73810
73832
73853
73865
73873
73900
73930
73935
73868
73766
73659
73612
73599
73579
73607
73624
73648
73659
73682
73704
73747
73768
73807
73808
73801
73830
73853
73862
73880
73895
73932
73910
73860
73856
73860
73841
73842
73792
73770
73731
73721
73720
73714
73647
73572
73437
73382
73362
73380
73378
73401
73440
73492
73549
73629
73652
73666
73700
73725
73728
73758
73776
73793
73820
73821
73828
73853
73847
73861
73855
73862
73847
73872
73853
73884
73891
73888
73879
73876
73808
73735
73584
73502
73470
73457
73452
73470
73490
73467
73464
73469
73482
73491
73487
73424
73379
73365
73373
73378
73366
73379
73379
73385
73388
73402
73445
73497
73551
73577
73620
73612
73622
73621
27314
27374
27466
27540
27594
27636
27684
27733
27728
27753
73673
73709
73733
73795
73784
73810
73807
73826
73840
73870
73912
73961
73977
74011
74000
74027
74030
74031