76094
76134
76151
76149
76180
76201
76205
76230
76242
76278
76308
76312
76313
76345
76355
76384
76400
76355
76240
76108
75993
75927
75908
75858
75868
75865
75854
75865
75869
75903
75931
75943
75966
75965
75952
75957
75968
75974
75992
76013
76017
76050
76061
76055
76088
76083
76123
76127
76148
76148
76209
76210
76221
76259
76280
76289
76303
76345
76356
76364
76358
76410
76408
76342
76235
76101
75987
75938
75908
75900
75894
75891
75899
75900
75951
75964
75983
75986
76016
76031
76031
76032
76037
76067
76065
76090
76118
76151
76167
76182
76204
76225
76244
76270
76293
76299
76313
76345
76362
76397
76436
76460
76487
76524
76528
76545
76584
76616
76633
76643
76566
76438
76340
76293
76257
76252
76250
76273
76293
76302
76306
76302
76352
76353
76395
76388
76389
76371
76383
76406
76432
76426
76429
76461
76458
76487
76489
76503
76531
76535
76571
76575
76589
76571
76591
76573
76599
76583
76598
76608
76607
76660
76683
76609
76495
76388
76314
76272
76271
76257
76273
76267
76294
76307
76329
76401
76474
76557
76613
76640
76692
76755
76793
76861
76889
76920
76989
77009
77023
77054
77056
77084
77119
77086
77062
77038
77037
77003
76978
76969
76953
76913
76885
76760
76628
76525
76505
76461
76475
76483
76481
76475
76487
76484
76477
76484
76496
76462
76476
76440
76447
76415
76424
76426
76409
76414
76433
76437
76447
76454
76443
76477
76503
76486
76495
76490
76474
76488
76472
76490
76478
76487
76473
76471
76457
76424
76366
76207
76109
76042
76024
75985
75643
75708
75738
75746
75793
75828
75851
75895
75880
75893
75875
75848
75840
75854
75911
75922
75918
75948
75945
75939
75957
75951
75952
75944
76005
76009
76036
76044
76046
76075
76079
76087
76079
76095
76102
76089
76092
76105
76111
76106
76118
76133
76091
75988
75885
75770
75723
75706
75686
75691
75669
75669
37194
75671
75676
75713
75704
75713
75716
75700
75701
75681
75699
75681
75700
75704
75700
75740
75723
75744
75735
75734
75749
75741
75738
75759
75775
75785
75806
75804
75824
75842
75831
75832
75853
75859
75870
75886
75888
75903
75909
75936
75895
75837
75706
75648
75587
75569
75577
75570
75583
75593
75610
75613
75628
75632
75637
75680
75657
75643
75638
75643
75657
75670
75676
75677
75686
75700
75700
75699
75737
75738
75755
75784
75797
75812
75824
75837
75832
75861
75865
75881
75898
75898
75920
75925
75954
75952
75873
75789
75714
75639
75619
75635
75626
75628
75618
75634
75653
75643
75671
75689
75710
75701
75723
75727
75719
75735
75729
75732
75754
75749
75777
75772
75810
75810
75815
75833
75850
75859
75865
75875
75896
75886
75905
75914
75940
75950
75944
75962
75971
76008
75995
76004
76019
75925
75831
75744
75709
75673
75684
75687
75673
75684
75692
75680
75693
75702
75727
75742
75735
75743
75748
75750
75742
75741
75768
75792
75795
75818
75834
75832
75868
75865
75886
75896
75916
75948
75962
75957
75955
75962
75958
75981
75994
75994
76009
76019
76036
76041
76041
76062
76067
76009
75924
75856
75783
75733
75752
75762
75748
75744
75757
75746
75752
75754
75763
75785
75770
75760
75760
75753
75777
75763
75776
75778
75813
75802
75808
75841
75840
75863
75866
75869
75902
75899
75896
75919
75951
75945
75957
75984
75980
75984
75997
76008
76005
75996
75980
75896
75802
75751
75721
75717
75725
75707
75729
75725
75740
75741
75772
75767
75777
75782
75793
75784
75768
75777
75774
75797
75799
75799
75804
75823
75839
75830
75845
75854
75903
75889
75902
75896
75894
75925
75936
75936
75934
75949
75952
75936
75884
75783
75703
75689
75685
75653
75676
75646
75663
75661
75674
75677
75677
75659
75628
75604
75579
75579
75552
75587
75583
75602
75599
75600
75604
75596
75640
75631
75644
75655
75666
75653
75658
75690
75683
75704
75727
75696
75686
75669
75664
75655
75628
75564
75453
75368
75306
75288
75277
75287
75258
75254
75240
75225
75219
75258
75263
75267
75255
75280
75273
75258
75246
75265
75253
75250
75253
75251
75266
75256
75256
75249
75258
75281
75290
75356
75388
75425
75440
75476
75500
75521
75548
75536
75573
75603
75589
75622
75617
75631
75674
75734
75843
75882
75868
75528
75074
75198
75400
75417
75460
75753
75768
75381
74756
74456
74584
74811
74861
74856
74893
74971
75448
75584
75531
75501
75405
75313
75276
75335
75430
75465
75426
75396
75383
75370
75406
75418
75367
75179
75083
75027
74991
74969
74940
74893
74918
74916
74925
74917
74912
74852
74809
74767
74764
74787
74787
74804
74831
74833
74876
74892
74908
74911
74955
74961
74958
74974
75003
75018
75073
75093
75118
75117
75107
75157
75378
75475
75557
75635
75717
75794
75831
75890
75923
75948
76030
75972
75998
76015
76030
76019
75946
75906
75907
75883
75875
75904
75890
75879
75878
75887
75928
75940
75975
75990
75996
76016
76035
76050
76070
76100
76136
76133
76180
76171
76234
76258
76283
76310
76339
76367
76398
76437
76458
76501
76539
76559
76518
76443
76412
76413
76418
76425
76438
76456
76449
76469
76487
76495
76548
76555
76579
76587
76590
76625
76632
76636
76676
76689
76723
76738
76748
76773
76792
76808
76840
76857
76858
76880
76912
76931
76951
76970
76981
77012
77027
77043
77055
77074
77108
77125
77140
77174
77186
77209
77238
77277
77302
77299
77291
77215
77158
77141
77110
77130
77124
77119
77139
77121
77123
77144
77146
77158
77179
77180
77168
77167
77168
77179
77170
77189
77192
77212
77186
77218
77215
77230
77228
77259
77246
77252
77285
77297
77296
77331
77341
77344
77347
77351
77364
77392
77403
77397
77426
77427
77422
77365
77268
77237
77191
77192
77181
77152
77138
77158
77152
77172
77177
77195
77207
77219
77175
77192
77176
77161
77189
77183
77176
77173
77179
77179
77192
77204
77204
77194
77212
77224
77246
77249
77272
77278
77279
77277
77299
77305
77319
77275
77197
77112
77070
77034
77016
77005
76982
76966
76980
76968
76962
76962
76976
76983
76955
76933
76917
76912
76930
76937
76928
76926
76960
76940
76956
76955
76963
76964
76955
76994
76993
77007
77002
77000
77052
77047
77056
77050
77068
77033
76944
76840
76791
76776
76741
76756
76724
76707
76720
76708
76708
76725
76739
76737
76747
76744
76753
76710
76733
76719
76745
76758
76771
76776
76791
76791
76801
76824
76818
76837
76832
76832
76879
76878
76876
76902
76914
76924
76946
76936
76956
76979
76983
76983
77009
76995
76965
76880
76770
76719
76670
76665
76665
76638
76652
76655
76645
76648
76656
76674
76700
76711
76715
76722
76719
76723
76729
76759
76766
76768
76778
76783
76810
76833
76855
76876
76890
76894
76922
76945
76949
76973
76993
77014
77026
77039
77038
77062
77073
77075
77099
77101
77125
77131
77169
77122
77087
77004
76905
76867
76853
76822
76835
76859
76839
76846
76851
76867
76878
76903
76910
76928
76920
76929
76913
76945
76943
76948
76966
76978
76993
76984
76996
77007
77037
77045
77058
77064
77093
77105
77123
77106
77138
77141
77158
77169
77193
77197
77195
77142
77056
77014
76939
76922
76914
76925
76917
76921
76909
76926
76945
76952
76987
76977
76962
76981
76979
76962
76978
76990
76987
77000
77004
76996
77011
77004
77030
77050
77058
77066
77075
77100
77090
77110
77115
77141
77129
77116
77028
76936
76881
76855
76811
76798
76785
76800
76804
76763
76777
76805
76822
76820
76819
76807
76815
76797
76797
76801
76804
76807
76838
76837
76838
76867
76860
76864
76888
76886
76903
76912
76919
76935
76950
76963
76970
76963
76993
76984
76927
76819
76755
76677
76633
76628
76635
76650
76637
76642
76628
76632
76638
76653
76670
76667
76688
76705
76695
76703
76702
76709
76719
76751
76747
76763
76771
76777
76786
76814
76827
76828
76858
76875
76870
76890
76910
76920
76931
76929
76983
76978
77002
77005
77025
77045
77068
77066
77086
77122
77105
77117
77129
77160
77163
77176
77204
77176
77114
76997
76928
76880
76841
76837
76841
76825
76823
76800
76818
76837
76826
76863
76880
76882
76890
76903
76899
76895
76905
76908
76921
76941
76949
76961
76987
76989
77005
77027
77023
77024
77047
77074
77080
77102
77101
77122
77099
77127
77153
77168
77174
77183
77204
77225
77228
77242
77273
77246
77262
77284
77296
77298
77286
77226
77148
77049
77002
76999
76970
76975
76993
76983
76969
76978
77016
77014
77035
77032
77044
77035
77033
77032
77024
77042
77072
77057
77073
77093
77100
77108
77127
77138
77135
77158
77159
77176
77191
77220
77215
77227
77232
77255
77259
77283
77290
77297
77307
77320
77321
77340
77339
77292
77204
77137
77075
77031
77045
77016
77033
77011
76996
77025
77018
77017
77055
77043
77058
77047
77065
77060
77074
77065
77078
77060
77083
77094
77101
77119
77151
77131
77152
77171
77178
77164
77200
77222
77208
77187
77229
77230
77255
77246
77261
77298
77289
77306
77321
77311
77326
77337
77315
77235
77147
77042
76997
76987
76967
76959
76951
76945
76945
76939
76934
76949
76965
76949
76958
76964
76956
76965
76953
76960
76976
76990
77004
76997
77010
77023
77018
77035
77061
77057
77089
77086
77092
77124
77134
77130
77161
77159
77191
77192
77203
77201
77223
77236
77248
77252
77255
77294
77294
77280
77281
77316
77336
77346
77307
77228
77129
77060
77008
76971
76951
76946
76958
76944
76944
76925
76943
76951
76949
76981
76962
76969
76976
76984
76979
76990
76971
76982
77008
77039
77032
77046
77070
77093
77097
77113
77102
77122
77125
77140
77154
77168
77172
77192
77180
77189
77199
77216
77242
77237
77237
77260
77280
77275
77276
77282
77289
77303
77315
77328
77326
77290
77229
77123
77052
77003
77009
76956
76966
76972
76981
76950
76969
76969
76998
77016
77008
77007
76999
76998
76991
76986
76993
76990
77028
77022
77028
77048
77045
77033
77066
77086
77094
77112
77121
77095
77132
77153
77151
77167
77174
77180
77187
77215
77216
77252
77242
77246
77273
77279
77252
77178
77103
77034
76987
76983
76981
76962
76969
76962
76974
76961
76981
77014
77039
77031
77042
77014
77041
77040
77042
77051
77064
77092
77081
77089
77086
77108
77116
77128
77130
77171
77178
77185
77197
77191
77207
77230
77247
77241
77250
77272
77275
77274
77308
77308
77316
77317
77307
77347
77347
77285
77204
77112
77058
77020
77028
77011
77005
77012
77011
76998
76981
77019
77001
77032
77036
77039
77043
77039
77047
77053
77054
77073
77090
77099
77114
77139
77139
77148
77144
77166
77185
77222
77218
77237
77238
77266
77262
77273
77317
77323
77318
77322
77345
77369
77383
77383
77393
77415
77427
77433
77450
77466
77485
77481
77517
77514
77535
77491
77416
77312
77237
77170
77170
77169
77162
77151
77141
77131
77136
77124
77147
77134
77148
77161
77140
77136
77131
77126
77141
77145
77153
77169
77157
77167
77182
77194
77215
77230
77237
77239
77250
77280
77284
77284
77284
77328
77346
77341
77358
77347
77376
77372
77402
77400
77414
77415
77425
77426
77446
77443
77463
77469
77473
77399
77326
77235
77178
77159
77146
77141
77131
77143
77113
77127
77136
77147
77170
77168
77176
77164
77154
77138
77131
77152
77166
77167
77172
77165
77189
77188
77200
77208
77209
77231
77225
77252
77265
77268
77280
77290
77303
77316
77326
77348
77338
77340
77344
77350
77346
77367
77378
77392
77381
77384
77400
77357
77265
77167
77122
77088
77054
77049
77041
77040
77046
77020
77016
77031
77031
77072
77084
77062
77061
77043
77058
77055
77054
77069
77077
77094
77101
77089
77108
77107
77124
77139
77144
77157
77163
77163
77175
77192
77201
77202
77231
77219
77235
77239
77265
77260
77282
77289
77297
77312
77331
77354
77365
77383
77393
77403
77411
77428
77439
77459
77464
77474
77442
77370
77264
77175
77139
77095
77068
77073
77048
77046
77059
77049
77047
77056
77077
77095
77097
77076
77087
77095
77084
77091
77084
77099
77104
77121
77101
77125
77146
77166
77164
77191
77172
77206
77204
77207
77222
77233
77265
77252
77260
77260
77266
77295
77299
77289
77302
77299
77316
77344
77396
77442
77502
77533
77584
77607
77650
77698
77750
77791
77813
77785
77717
77608
77513
77468
77459
77449
77421
77420
77432
77415
77385
77365
77353
77371
77332
77342
77322
77302
77256
77265
77256
77263
77270
77264
77272
77274
77290
77316
77313
77335
77334
77353
77360
77363
77370
77382
77383
77380
77383
77384
77383
77388
77403
77421
77429
77431
77443
77436
77459
77463
77494
77528
77563
77537
77476
77388
77325
77294
77262
77271
77241
77230
77237
77221
77230
77212
77241
77249
77231
77248
77246
77229
77225
77240
77222
77241
77242
77235
77246
77252
77271
77266
77290
77301
77300
77329
77340
77344
77370
77384
77388
77427
77442
77431
77453
77499
77498
77511
77529
77554
77581
77604
77618
77641
77670
77692
77718
77736
77715
77734
77700
77603
77506
77411
77362
77318
77298
77282
77277
77272
77250
77232
77244
77220
77264
77270
77271
77265
77261
77257
77236
77229
77237
77261
77248
77263
77279
77285
77286
77293
77301
77304
77329
77355
77356
77363
77385
77412
77408
77466
77488
77536
77567
77583
77578
77606
77623
77620
77616
77604
77646
77641
77633
77653
77660
77652
77661
77660
77663
77671
77680
77648
77533
77486
77451
77454
77485
77510
77521
77512
77552
77565
77594
77617
77621
77643
77644
77653
77627
77628
77607
77578
77580
77583
77589
77580
77582
77571
77582
77587
77586
77600
77602
77631
77615
77635
77624
77630
77633
77630
77643
77611
77611
77583
77568
77591
77582
77570
77574
77568
77551
77549
77560
77561
77582
77554
77495
77392
77278
77226
77181
77163
77171
77156
77160
77145
77155
77180
77169
77218
77234
77240
77235
77226
77210
77203
77209
77216
77218
77232
77221
77224
77238
77232
77254
77282
77295
77281
77313
77325
77364
77349
77375
77404
77414
77421
77461
77463
77501
77502
77498
77502
77522
77526
77552
77546
77566
77576
77585
77593
77613
77640
77638
77651
77671
77653
77689
77659
77593
77487
77403
77335
77319
77299
77285
77286
77290
77285
77264
77291
77298
77317
77323
77333
77329
77333
77344
77324
77334
77336
77344
77359
77387
77395
77403
77429
77445
77429
77454
77477
75930
77506
77503
77522
77528
77547
77549
77563
77568
77602
77595
77599
77617
77610
77621
77641
77635
77633
77658
77676
77668
77679
77662
77671
77669
77669
77662
77671
77680
77618
77499
77421
77350
77323
77305
77301
77277
77254
77263
77229
