-0.996216466855511,-0.814658057423479,-0.650335796234404,-0.449049522160316,-0.213676489146879,0.00202561894127312,0.148551269149169,0.237376884130996,0.335851784594685,0.502449770660691,0.741578356175465,1.01068375269055,1.25035585973317,1.42440462534104,1.55657272752631,1.71324356789141,1.92105188625886,2.11371516489378,2.19357766400983,2.14002621983987,2.0261911116679,1.93128045486364,1.86398183580005,1.77058654226389,1.58948915195564,1.29015385274126,0.884075223872801,0.419475716525606,-0.0409272110765464,-0.456358743375645,-0.831289534272206,-1.19793757724381,-1.57091568791675,-1.92215161847716,-2.20122946339186,-2.36967291044272,-2.40871698478171,-2.30960293838901,-2.08097786220993,-1.76925855002605,-1.44732545426263,-1.15585892186137,-0.859776710839977,-0.495242899537729,-0.0691468473118037,0.323189237965789,0.601259242501197,0.791045050921965,0.984421596197088,1.22373405280662,1.45495580369332,1.59023253979539,1.59062604912062,1.47859557232357,1.28908100334575,1.03342904968084,0.713917771745992,0.35259473166932,-0.0122538274650321,-0.351912676171553,-0.656094470487228,-0.923353191844552,-1.15414149241292,-1.33782404392916,-1.42997543373734,-1.3676690739407,-1.14379621076631,-0.854599825600392,-0.628676947517227,-0.495408892293883,-0.354894955190396,-0.103711658676561,0.227133099365582,0.494422024276984,0.603546711858608,0.611768673569236,0.652847919721423,0.785361586587258,0.941910450666447,1.00994179405965,0.930331007091057,0.722356087729196,0.446278855216786,0.157706604217284,-0.115724505600762,-0.374552052242917,-0.632555167139511,-0.891353893834145,-1.11672450741331,-1.24550547357671,-1.23188810172925,-1.08556490155378,-0.853589383965117,-0.575317225929649,-0.272413354433903,0.0312052714420174,0.310114873550719,0.559584707611434,0.795134682321595,1.02287906489383,1.22072935914968,1.35424366707568,1.41068158061076,1.41817636928919,1.42151384709129,1.42388940787458,1.3626358196041,1.16852048365308,0.844429723111968,0.457957168044589,0.0617241392076654,-0.344063820247478,-0.76567519384244,-1.16725626546267,-1.49006620958284,-1.70439913271655,-1.81631001948467,-1.82482622512814,-1.70652193109911,-1.46419571930608,-1.16372200749423,-0.882703601548954,-0.629021875046567,-0.347881607648597,-0.0130797154460112,0.325519635631264,0.599827095030341,0.797335308677293,0.956212926547979,1.11100766742777,1.26317417757497,1.38240523681804,1.41654703698405,1.32044488444906,1.09469579456053,0.784809958581192,0.438939535565016,0.0843499209093752,-0.260496281620969,-0.581481588604332,-0.878293060558294,-1.14931884439334,-1.35719011637553,-1.42966454550548,-1.31633266790858,-1.05038580545697,-0.741764846064685,-0.486861457230371,-0.280602030276791,-0.0393492652427477,0.281538762087644,0.621965037551413,0.887893617111696,1.05777954014269,1.18381713460404,1.30649125448044,1.40966860391856,1.45571518668026,1.42444048070811,1.30573492618529,1.08247546879636,0.746133236302587,0.32736801096229,-0.106716210894547,-0.500533519946225,-0.852370357391093,-1.19354770184521,-1.52636552574494,-1.80385675643302,-1.97156433612606,-2.00165368242995,-1.88593906403287,-1.63753607661673,-1.3138365402507,-0.994544557322546,-0.706078331755142,-0.395957339988267,-0.0139653055204139,0.400741013314546,0.747312752553129,0.971482744240863,1.11756954123505,1.2683000873123,1.45184976337211,1.61685006024896,1.68512053528569,1.61331813744113,1.40980259409266,1.11576281988541,0.78037773538509,0.437766964203325,0.0919223674788336,-0.270075370735284,-0.642568804588076,-0.987512713163113,-1.25855284233686,-1.42397359013051,-1.46509175184686,-1.37763716832112,-1.18804564259656,-0.950305874607164,-0.709161090954704,-0.468611960206336,-0.202049866088757,0.105668437217786,0.423759549933066,0.686191389404324,0.848896395038396,0.937360050457094,1.02119005480725,1.136265400168,1.24643980227611,1.28225838855906,1.19625913859629,0.981278224895062,0.665754044315813,0.302354023941783,-0.060887539178145,-0.410617706236832,-0.760481018851759,-1.11198636446464,-1.43081466585968,-1.65903549656042,-1.74409286510836,-1.66503931277447,-1.44897405110448,-1.166029470111,-0.890846185871152,-0.648833641764361,-0.400157112877377,-0.0940792019973644,0.253337048651176,0.553697039933247,0.738250847264352,0.843096409727702,0.970239554730754,1.16069199410802,1.33976471127617,1.4041680926147,1.33234024604307,1.17862985839737,0.981252342809294,0.72281239022695,0.38367016793138,-0.00832058319345961,-0.397763849977858,-0.740998989782062,-1.00880942787912,-1.17393163982893,-1.21547241372696,-1.13156041789194,-0.948445541554891,-0.720869872905128,-0.504265874719148,-0.305823414119244,-0.0785935635541913,0.207964714013873,0.5024346354742,0.712399251067474,0.813388778647385,0.881934260599562,1.00371468880751,1.17115444090708,1.28954087219725,1.27036235888319,1.10251422409892,0.840365371035148,0.540457064982342,0.217278762351602,-0.1435114224349,-0.54073309251967,-0.938550869559095,-1.28995900354432,-1.56729444678019,-1.76273792381238,-1.86106229823422,-1.82456063435744,-1.62876581031829,-1.32097548450621,-1.00977352865369,-0.760285253488981,-0.517500175465888,-0.178643184586396,0.260762490158081,0.680759485469639,0.970968858562037,1.14864519860075,1.3154201773236,1.52665266230463,1.73764183480678,1.8627505859108,1.85187616149505,1.70746359497876,1.45624417449814,1.12716831625284,0.752692292967569,0.36771729615886,-0.0100370225154268,-0.388957774273108,-0.775473742049577,-1.14381614639853,-1.44939548415887,-1.66181175137312,-1.76553936779366,-1.74066525271563,-1.57568967976893,-1.30748957535318,-1.02042821508921,-0.774579254121409,-0.539853881975024,-0.235289006679561,0.157346375855269,0.551254301845507,0.84402126662248,1.02389807610675,1.16422615241167,1.32906062074395,1.50893369484263,1.64085406009039,1.66169769402437,1.536592517093,1.26777655938272,0.904346278858229,0.525773597381694,0.179514505587854,-0.160509325374198,-0.540632726815399,-0.940369237783009,-1.28188588946894,-1.52516282324191,-1.69940620350086,-1.82111247032821,-1.83294662902639,-1.67239569242147,-1.38279636817416,-1.10089312526356,-0.911629840710901,-0.749518473765477,-0.484625338343316,-0.0933617352384278,0.301514934166019,0.567473367661286,0.700896910322577,0.809195240639737,0.978275101543075,1.18545867252848,1.33509425880432,1.34924229557551,1.21730609834029,0.985583144592471,0.718462558055389,0.45678970001954,0.197641896990511,-0.0840958850056348,-0.393136229090249,-0.695874195409006,-0.939078565417067,-1.08224191140775,-1.12002861727061,-1.07473988548165,-0.959100013344235,-0.758236451521584,-0.470374749114043,-0.150799908667498,0.125248248431004,0.345082437704816,0.563354806700533,0.812890610984706,1.04964069464026,1.20914399992526,1.2869932564691,1.33324740284562,1.38416758971892,1.42468582686397,1.40539449016978,1.27531078418272,1.01190618016221,0.642794015185608,0.232104271202358,-0.167731991758033,-0.542271717139882,-0.89045965655505,-1.19735396195184,-1.44518447841892,-1.62915309510211,-1.73671793997064,-1.72274727230507,-1.5435985267687,-1.23243334237211,-0.90905613817801,-0.674474810804364,-0.503247580289984,-0.279697634781362,0.0540785603162321,0.419893542378743,0.686208033731451,0.804889440517891,0.846190693484023,0.909131798484874,1.01772969982788,1.10640600447316,1.08909681302754,0.930155167644418,0.657328425124721,0.32637773693601,-0.0173588674851373,-0.353017699695084,-0.67804182783627,-0.994179954667476,-1.29086216640422,-1.53294751879316,-1.66589913102557,-1.6428420792513,-1.45860126174639,-1.1641380632485,-0.840957416487205,-0.543930797588509,-0.261025939220078,0.0607253117503628,0.443137022783682,0.841989999559365,1.18830637907947,1.44698156882117,1.62888846197773,1.76925339784597,1.90405799952141,2.03697453223591,2.10852226559698,2.02512636789275,1.74905433777726,1.34739449203158,0.928539419191704,0.538961639804017,0.144883099999727,-0.290244021900313,-0.741459537333081,-1.14953554185654,-1.48629462283494,-1.75666399809858,-1.94084483092386,-1.97954459263846,-1.84290881409213,-1.59157973725712,-1.33516644061309,-1.12564965944867,-0.912661865463264,-0.617645832343195,-0.238488508707852,0.139835133965985,0.431762306351246,0.626241518537222,0.778742364345308,0.948692986701467,1.14170787222644,1.29576927405991,1.32876692969781,1.21258620481182,0.990869909324411,0.719203356252677,0.416162294345546,0.0876786438941746,-0.237753037363292,-0.53241681259618,-0.806192719582335,-1.08337500946615,-1.34588904690892,-1.52574203819355,-1.56116570394455,-1.44991652253039,-1.24553290816269,-1.0106319619259,-0.775323645116196,-0.529914935719053,-0.248990498362004,0.0751662261421019,0.415057666760802,0.719457526263898,0.946680832361318,1.09615110412515,1.21049196928627,1.3371807876288,1.47701106953631,1.57117062430594,1.54762391849363,1.38286306079626,1.11531251891887,0.80270846293205,0.47818519938443,0.147807526901323,-0.188544509713059,-0.527079580296657,-0.857319500754689,-1.15285296583947,-1.37023696836687,-1.46759548464932,-1.42371578637034,-1.24624722034769,-0.98059737346557,-0.705875664829936,-0.484705940573885,-0.299775015860695,-0.0710695763401014,0.238032243579331,0.557001161002381,0.780628363788877,0.886467843123279,0.948427219272521,1.04409870553084,1.17646376863125,1.28092303931864,1.28066734719164,1.13191263077977,0.844669295263947,0.481037712665689,0.119869335830321,-0.199774389183754,-0.499681122097745,-0.81572044943066,-1.13477355897224,-1.38997857627539,-1.51338163796313,-1.48256463948988,-1.32766600392055,-1.11482106912574,-0.915067133561132,-0.757774760718563,-0.604859737246492,-0.391198205957731,-0.103398873292741,0.191947896889578,0.409289023260955,0.530086129730814,0.620956546448134,0.762769619259485,0.959864998135812,1.12319001799126,1.15149429948585,1.02695860858848,0.819152640909353,0.600281336835693,0.381535821502652,0.138400564735862,-0.132044764358169,-0.402851452397411,-0.645602450420997,-0.834264967041424,-0.927139991325808,-0.882871622086291,-0.712614528756909,-0.495440946514908,-0.315537377409467,-0.185740599029624,-0.0504956493136607,0.135845243907638,0.351125605433949,0.530417109820411,0.633806607378987,0.678297337072433,0.711368975117929,0.766173647785846,0.837271098356417,0.88292434533816,0.847817344453457,0.697620694721275,0.444266905205604,0.140576032036233,-0.154500092732197,-0.415346966340219,-0.659037858713923,-0.907059394781244,-1.13536098547699,-1.27780339513296,-1.28478226712818,-1.16058784744658,-0.941870287685112,-0.671526366948538,-0.400443465235508,-0.168745163555667,0.0401110817845226,0.28687908407257,0.587509321653242,0.868885663013429,1.04549106951599,1.11800051710109,1.16561191153811,1.24944338431262,1.34583432485816,1.37593826064725,1.28418886248953,1.07520423486553,0.784245688695187,0.43944860036759,0.0628724335262722,-0.316244567660702,-0.673915340218465,-1.00953921424986,-1.333482336167,-1.63625074550458,-1.87464955341208,-1.9846260283779,-1.91749571584821,-1.68996909122334,-1.39805055208342,-1.14567803994211,-0.944963173312602,-0.712629695213857,-0.377783018853527,0.027916076276371,0.398189677691337,0.654660256321799,0.813892752481897,0.963447448899415,1.1752097011545,1.43017139145435,1.62249690263626,1.64837600969203,1.49914321849222,1.26045981455019,1.01821968038201,0.781658043338354,0.507981232440636,0.180953869870153,-0.161272759077101,-0.467760341391911,-0.713307340479369,-0.888046636015628,-0.971129126514944,-0.935661122195491,-0.784156229103153,-0.572150506406381,-0.380476451715428,-0.248584045315704,-0.13811516047068,0.0205057195733868,0.238714767222717,0.440460733725929,0.537062442963045,0.525746625314481,0.496052886383263,0.535542807751117,0.639008453213835,0.710337031425679,0.646049754922007,0.419684711865488,0.0939600808152982,-0.242508690651023,-0.544535185929093,-0.81877668140141,-1.08113540208256,-1.32424477960867,-1.52067535070629,-1.63384751237399,-1.62050973301278,-1.44930461741437,-1.14187634197948,-0.785876657163896,-0.477763581580862,-0.241582747302373,-0.017077564292279,0.264338448482581,0.60123475305293,0.923855911012248,1.16390915690646,1.31577557548452,1.43143869411559,1.55705836436789,1.67501931470503,1.71330143046332,1.61377311688264,1.38289799515561,1.07044832294409,0.711601999736685,0.307370847023295,-0.14033841999176,-0.593837006147599,-0.993162796677116,-1.29736809185247,-1.49460210372955,-1.57458091859112,-1.52580031910381,-1.37757301137343,-1.20720120816762,-1.06469835531747,-0.911187245212005,-0.677136287295383,-0.374165852332656,-0.104923926816196,0.0434071390244104,0.0869087530145312,0.128840549944457,0.26382905888931,0.489250322336826,0.728894620458276,0.926075911373518,1.10595554230395,1.34754019999181,1.53959309708895,1.33658832305447,0.771017884718056,0.39169470509828,0.309801236278885,0.0314465757734836,-0.515944727663421,-0.926155130785594,-1.14176778760509,-1.35915530371023,-1.51215302117676,-1.43972473490662,-1.19285818082468,-0.964445281118503,-0.885228834968603,-0.903157721349765,-0.833075139036423,-0.534115571086487,-0.0433282051856647,0.460358200124241,0.838051929277838,1.12418102065028,1.44915274829892,1.84889697505132,2.19822323276306,2.34600163386284,2.27859544382211,2.10587397478216,1.90175690431444,1.62182632222475,1.19524075104052,0.644165177882424,0.076792585582176,-0.407401145636484,-0.773378070903287,-1.0298307928487,-1.18551583374205,-1.23549113657298,-1.18561978625156,-1.07764755373737,-0.968896800084439,-0.882653457531489,-0.797087288179911,-0.6871522932051,-0.557137399412169,-0.427891774826875,-0.314025847443367,-0.220130397445124,-0.138637285657818,-0.0438806533886864,0.0894774157642066,0.246212071580187,0.361066597379427,0.365516168361836,0.245720942487219,0.0555016930671907,-0.122038691498025,-0.232142735053256,-0.285085037823645,-0.336090084017153,-0.410771216849962,-0.450477574480786,-0.360546183991845,-0.126476115765558,0.145975313489557,0.332770208300437,0.417173610427564,0.487494487768346,0.620172693200126,0.79274721818245,0.914549607334693,0.925122540073611,0.854043042126848,0.787467153080471,0.777662826447152,0.785152146379328,0.712013092215974,0.493875359288996,0.158572736177332,-0.203785454710935,-0.522052411174623,-0.792667406870248,-1.05484355328198,-1.32921181949782,-1.58698874373529,-1.77324135692206,-1.84641390249287,-1.79525479195416,-1.64092728519362,-1.4373875679045,-1.24708679449548,-1.0872470855463,-0.907297644973103,-0.646530742877681,-0.31651033069186,-0.00255760376715197,0.227447716250478,0.396122339959954,0.580048650471424,0.813905761524573,1.05474803173859,1.23440602588652,1.31976512437827,1.31941498301382,1.25783541711799,1.15640468797677,1.02585127152408,0.867177168963574,0.686620065547854,0.510323363842392,0.372974753092675,0.290483850557783,0.253488414304787,0.247018752677815,0.264703838388106,0.299799422064559,0.331713748721039,0.334727734280389,0.306588584709462,0.279136275771466,0.28293839708196,0.30189567350583,0.284362408378455,0.207351238346712,0.110728317743948,0.0521532759685611,0.0355445005624714,-0.00238055840217429,-0.132100831147272,-0.362245676177411,-0.630538971356936,-0.858649386927114,-1.01686379518873,-1.14224152826264,-1.29229678136239,-1.47218377040883,-1.61020741017061,-1.61621469482721,-1.46683580517017,-1.23282946444036,-1.02286454107855,-0.88906002405825,-0.778573798327642,-0.594307062275675,-0.315446495849244,-0.0322270263725148,0.160212348720599,0.273301784677454,0.397253159515698,0.583320660863639,0.793260122582969,0.958563300434461,1.05086202340851,1.08347909824514,1.07201458580261,1.01748925758342,0.919921426345551,0.788599157041943,0.638390037199239,0.486168748316708,0.346123030838779,0.21886668956124,0.0944039644557324,-0.0214990533364678,-0.0922534653333404,-0.0758903505756329,0.0322854461694884,0.182490109821654,0.299607385558974,0.347840722700621,0.374961687938008,0.468892024313449,0.650971976773312,0.83320293306383,0.909039776270711,0.874007610156956,0.823686435925625,0.833323276724487,0.873787073186494,0.858030266429756,0.737945204574561,0.531247211595131,0.279034341957455,0.0134437040199328,-0.24210348424435,-0.477506719563925,-0.707106212549022,-0.950767322471984,-1.19701532015529,-1.40616612275584,-1.55535253948391,-1.65883685314837,-1.73674422846238,-1.78260519768265,-1.76732475011883,-1.65879071756001,-1.44081586397181,-1.14043610757786,-0.834441727560469,-0.588221565458023,-0.378408257249089,-0.118209862325102,0.223914965870271,0.571927824119809,0.831048308630247,0.993497809731748,1.12734404665967,1.28341418633695,1.44273073245475,1.54677266908133,1.55426841564855,1.46645951007971,1.31422265088709,1.12864058729077,0.919945783831208,0.683860353552651,0.425908797390469,0.168201371243932,-0.0709871769147642,-0.29161123804639,-0.499524795240244,-0.690036889869158,-0.851882515443621,-0.98180025559852,-1.08360745687121,-1.14761816032069,-1.1409614041241,-1.03746773639364,-0.861509665513895,-0.683112434165569,-0.552297211089676,-0.44457931709572,-0.289096561208797,-0.0552609175319421,0.201309694757798,0.391960968807396,0.489445571269151,0.550824455029629,0.639402972766703,0.745149839507976,0.805321002073031,0.788067234479493,0.718154835296535,0.620963679512967,0.485182730975307,0.301681924133895,0.104276804988295,-0.0633809038825735,-0.20295134233658,-0.347384562665091,-0.501547921774168,-0.632853173088206,-0.718112658019539,-0.763786243255307,-0.773192582508959,-0.725867568304657,-0.608488688464663,-0.448605002017883,-0.296597099042525,-0.177113527869506,-0.069388126138057,0.0647545052316101,0.236240907921578,0.409175818546044,0.528284718607849,0.573045438171007,0.580521439797583,0.60462854744273,0.657129968772324,0.699404529003103,0.685516999194694,0.599399865594777,0.457417568773766,0.293969652372834,0.142884781699302,0.0155303731050491,-0.105512761051516,-0.241821539324342,-0.388721659344302,-0.51406121926479,-0.580999843695355,-0.566769473857499,-0.470546076057678,-0.318106960026296,-0.157308885229466,-0.0349957513904621,0.0334431924978497,0.0757856448441398,0.138396681132039,0.237863180668103,0.335815151851467,0.374537791337607,0.341894121166504,0.288046433739804,0.270413334313161,0.292861182518135,0.306739879388034,0.259727381835998,0.134958987065382,-0.0408755862489413,-0.211690026732612,-0.329531102285284,-0.398417442261103,-0.469864216361978,-0.576506036673577,-0.682033026563207,-0.718807904697996,-0.666394534449746,-0.564118653030586,-0.444761528263085,-0.293427833472063,-0.0955070736659095,0.109298872217283,0.266746227713011,0.38390049615731,0.512081936257585,0.657788935085852,0.76464261919401,0.793995109201693,0.776287058174031,0.762082140068024,0.756694812157427,0.727447304039468,0.652491787220389,0.534458735276904,0.373997170705779,0.157265927070916,-0.119131888619068,-0.420827106553374,-0.687959024636651,-0.882884203427014,-1.02218286796599,-1.14952556412888,-1.27442951120566,-1.35003255686852,-1.31692705967055,-1.16097298765754,-0.927217550520424,-0.685987592898703,-0.482967401049085,-0.308365035172712,-0.109768741436225,0.15478571305568,0.465861461981755,0.748266162194466,0.940157386389614,1.05495787006523,1.15824698006856,1.28191124875373,1.38069859282439,1.38288755999953,1.2693555756886,1.08609952969241,0.88255805525493,0.661192356393263,0.402269673424734,0.115261309367918,-0.166978954449445,-0.433409969471206,-0.696536809560138,-0.950366653669425,-1.16075453600337,-1.30326436646121,-1.38335305078611,-1.40842720164109,-1.36117732273569,-1.22136402473961,-1.00903382063105,-0.783809068530365,-0.588060880714126,-0.401647714893725,-0.171940602233033,0.113520897013757,0.405661336557782,0.64994939048834,0.84104489584302,1.00732978409334,1.16015843846142,1.2805078383918,1.34560958690875,1.34438304027705,1.26802896601202,1.10993101010354,0.885473992839681,0.637599085209896,0.408845352621278,0.209283601441518,0.0162819634360288,-0.195365860174992,-0.424517848067436,-0.645080655140171,-0.834425858302832,-0.989790523956447,-1.10678864600667,-1.15515080648765,-1.10373685125851,-0.973294425570096,-0.834078989612213,-0.727834183789472,-0.611173379298325,-0.411709131342474,-0.136543608287775,0.116344124744218,0.268766413196005,0.348469384286515,0.440624658185433,0.579980795251021,0.720743460164372,0.801164523649601,0.808996764736431,0.774835441373182,0.71598062399503,0.611711656160405,0.445203491173323,0.247459446130225,0.0689719801760163,-0.0830327824671672,-0.24343388934721,-0.426110573188712,-0.599396695873916,-0.731864897316568,-0.826515514845824,-0.890267658740469,-0.8945662653628,-0.798702068950241,-0.615178954085404,-0.422438649748293,-0.283757041752748,-0.169285587832877,-0.000948403293959454,0.230670953868003,0.447792632261527,0.592918464461216,0.697456975488945,0.815193766251189,0.936934171966694,1.01458279690427,1.03739041358255,1.03363878404323,1.00734229133562,0.919764944249761,0.742632486625143,0.498797101197356,0.237050101749211,-0.0106538721794707,-0.23356237063117,-0.428523625982853,-0.605624912774021,-0.788304457892461,-0.976653024985202,-1.11937914174332,-1.1521058244589,-1.06316907168499,-0.904624412340592,-0.745535056467315,-0.623868519510373,-0.524660703355691,-0.393483406443882,-0.193696572752005,0.040442458292625,0.231415209074044,0.343099969428362,0.412195677622916,0.495302688603507,0.611423781674507,0.734657537274552,0.816140821200298,0.812079408691441,0.713344720761911,0.554940023655245,0.38811308117829,0.240703305168704,0.1045697963534,-0.0427970969628347,-0.206116364726268,-0.361283170649377,-0.476231703920198,-0.534084563202569,-0.527924083450469,-0.449879347733561,-0.310131343358197,-0.156353607008145,-0.040391912485024,0.0395418561225387,0.13635468226228,0.282172212102066,0.440201014401785,0.545426531791119,0.577562977358571,0.572692308446183,0.573787412465132,0.590987642449592,0.600602479293594,0.562384129684992,0.446310826718385,0.260361875188629,0.0466655823018235,-0.159978109022931,-0.361859344005671,-0.576460002184791,-0.793054172896013,-0.972022915254351,-1.09279789756792,-1.17619236692803,-1.23441116245258,-1.22253191696571,-1.08734197944808,-0.861006187022189,-0.649299569897504,-0.505504168862263,-0.36678767502403,-0.152719297970803,0.114511044570262,0.337147631715816,0.464564775449411,0.537839187096413,0.617897413310669,0.715141543619708,0.800766069862257,0.849580161298792,0.843640767129055,0.756345887947701,0.573338023120055,0.33047824571996,0.0966666515498482,-0.0959539840138582,-0.281625077603023,-0.504332745065274,-0.749987689407246,-0.955712065886285,-1.07630614029561,-1.11883813861189,-1.10949299938285,-1.04714478785233,-0.910369528130542,-0.705845392730014,-0.48060311048876,-0.269465226707836,-0.0506633938829398,0.220884888221727,0.543846252145627,0.856793637858335,1.09635715677461,1.25676772856822,1.38847970015744,1.54092722230366,1.70498671524234,1.81354089463168,1.8059016139442,1.68634460979982,1.50640780239952,1.30070362412965,1.06491765427144,0.789719433467024,0.485704085696441,0.172041175832609,-0.137526664492501,-0.434787747140989,-0.718570868348732,-0.994390900340618,-1.25580161275205,-1.46507950650087,-1.56962295439089,-1.54880479313036,-1.44242769763598,-1.32557146016661,-1.24380959074828,-1.1656859910385,-1.01284422293581,-0.75630157466571,-0.47113106405828,-0.265917829364187,-0.159613541374918,-0.0616277124712369,0.113319740319225,0.339360931259903,0.51419952188697,0.580132191388985,0.571452625288059,0.543732441222816,0.501040110695493,0.414663908661121,0.282783439380433,0.140842479905111,0.0248354637857483,-0.0536611027181398,-0.105044446938351,-0.153526533362954,-0.221480872579542,-0.30054921519908,-0.348879683155949,-0.339538347254351,-0.292646476817604,-0.228561027095831,-0.118412674711305,0.067652067414958,0.285589540665087,0.453578321456959,0.556766702706509,0.657547501723123,0.797845710447499,0.945055541031874,1.04781854417835,1.09547875539283,1.09988424103827,1.0639635467231,0.999982668631256,0.939100843250079,0.882475225249007,0.772481633033718,0.557192694011375,0.266758906053096,-0.0159904531772703,-0.251091260995369,-0.466344781687749,-0.690221000396042,-0.905417868385951,-1.08325306023148,-1.22715831405657,-1.3540330254422,-1.45009386985821,-1.47249218612124,-1.39363681275863,-1.22896990613737,-1.02109259452411,-0.807858176504326,-0.605611379696496,-0.409630607840437,-0.204375256550457,0.0185338998858731,0.246087090525681,0.450175259300722,0.60866379873899,0.718847560213852,0.796799140660591,0.868740076650365,0.94994985380846,1.01543180221456,1.0014417932026,0.863592547228633,0.635810034872167,0.404181033728486,0.213876983810663,0.0319923023291463,-0.182825577820302,-0.410960944156074,-0.603216266976361,-0.750412574036063,-0.876221952802188,-0.972662748695394,-0.988667226342806,-0.894223778338047,-0.73007499337333,-0.575933017332602,-0.473456453312577,-0.388780633075601,-0.254651280852645,-0.0481629842976001,0.179975503734929,0.355803807129121,0.4533406999125,0.510206050744944,0.578615742353475,0.668250701407602,0.73907671502255,0.746444680371431,0.682038159796785,0.563895813439074,0.402065375924233,0.197696717187781,-0.0263477082310725,-0.220745389583891,-0.353248932317178,-0.449189003180281,-0.567542686732918,-0.72518374510712,-0.856262642333545,-0.866333828091179,-0.728101184706137,-0.511020332937048,-0.314303052301154,-0.177409245685995,-0.0559023134166645,0.118176104137399,0.35469789815978,0.591354852065609,0.759871157503459,0.846991512361722,0.884868055125975,0.908081305291984,0.933176405356096,0.954134404498842,0.940137732287924,0.855927534415256,0.696511461622515,0.487942070543647,0.251921352526286,-0.00851916489529404,-0.281904108844702,-0.531332500257061,-0.725563281656891,-0.87843178971622,-1.03361132989329,-1.20167167727366,-1.32758555755254,-1.33641313476929,-1.20584303999053,-0.983769159964669,-0.743718840815219,-0.532078343015117,-0.342184361079345,-0.12437803951789,0.162531154943782,0.49315967775512,0.78413679366103,0.975674256238232,1.08824383632749,1.18505798016531,1.29770065965532,1.40341685472249,1.45561747390937,1.41813881174263,1.28280074903927,1.07085003024047,0.815773029779332,0.54009776647291,0.24910451722662,-0.0567018683964501,-0.36683389989865,-0.658107067000416,-0.90905271890055,-1.11780177298526,-1.29805452155244,-1.4541988257034,-1.56683867543533,-1.60234315949886,-1.53199973775563,-1.35396408888989,-1.11028808050008,-0.866516236279278,-0.650112941790719,-0.418283028084505,-0.113523935490561,0.250625146413955,0.586495901475135,0.824071369101168,0.982478280025681,1.13154393242348,1.3009045290524,1.4529749862259,1.53358745089451,1.51931838819476,1.41637159631229,1.23916955463125,1.00143308867408,0.719181337634067,0.412262504265759,0.100155009739161,-0.201569691267595,-0.480512005973596,-0.729164505207122,-0.949956314077803,-1.15032862538423,-1.32576645237244,-1.45307504325239,-1.50719663671743,-1.47879223619844,-1.36857046991611,-1.17899265201457,-0.931535519166052,-0.676038295633355,-0.446363411538833,-0.213365545974332,0.0744153194320891,0.400119486712918,0.674668148738454,0.839528037081282,0.934914881302798,1.04157521902718,1.18158585517706,1.30168516304923,1.33644769139598,1.26325130194621,1.10441786418793,0.897765759591339,0.667023194761017,0.411759078735798,0.126966038261843,-0.166286336091925,-0.424052683009094,-0.626073810523764,-0.80422344306479,-0.999217712997435,-1.19440765733673,-1.32161401999962,-1.33636929419264,-1.25979791873904,-1.13614748608057,-0.976631144480652,-0.767913905094012,-0.517568959082847,-0.258623362761036,-0.0104346417438541,0.236876880336182,0.491590387640132,0.733572046165408,0.928474697082773,1.06065183968942,1.14679707686672,1.21736181451766,1.28153420724357,1.31013884794909,1.25894881494432,1.11091835824711,0.891200435286336,0.640400965948551,0.37971205212555,0.106370040648167,-0.180938020392242,-0.460986380013282,-0.701494490579952,-0.892216251895054,-1.05548136748179,-1.20814809706607,-1.31497688676856,-1.30559100201172,-1.15707396487698,-0.944177037592625,-0.776767730871213,-0.683941667765308,-0.585892930068399,-0.392998370771107,-0.111378612448877,0.167158873879939,0.36142857896195,0.4662690804204,0.537083556333272,0.632477523073567,0.763973150561947,0.880442627414979,0.90275595255025,0.793028829870544,0.597080362218147,0.404203525722804,0.254910985263111,0.104879382983373,-0.102645101999304,-0.348128421553378,-0.55194256263,-0.671505745440996,-0.741429416385243,-0.802381027860954,-0.823656525250493,-0.734169433984792,-0.52462979914829,-0.280166924046268,-0.0929438668779174,0.0339377420853461,0.170837025547414,0.363715222173481,0.580300832971783,0.753745263470137,0.85490305428114,0.908515450073275,0.951518309788213,0.993150164076736,1.01324951567603,0.982159922024232,0.877243315122235,0.694500423108684,0.454274946305799,0.187516055125719,-0.0892850900559495,-0.373411567924723,-0.646002106133591,-0.869453303733261,-1.03616786963346,-1.19145492311436,-1.36605455503804,-1.49987688120616,-1.48251802725264,-1.27877427898388,-0.981250269603616,-0.723134732183954,-0.551105727309399,-0.390838353645979,-0.134127888905608,0.240439411796043,0.635842861635322,0.929999551278656,1.09273802122668,1.19821932202872,1.33186723673429,1.50479119861478,1.6528658804415,1.69558090787863,1.59510830851548,1.37930332414409,1.11415172892917,0.843961234964746,0.559725048804825,0.235335476907254,-0.116020261683862,-0.445092995967361,-0.725886552493819,-0.985714738850335,-1.26078427127487,-1.53614058884871,-1.75008417890716,-1.85366949415843,-1.84437068281795,-1.74328601683702,-1.5718463387608,-1.36108397547967,-1.14571983209359,-0.920972108493798,-0.633394200494152,-0.251390252685229,0.167140034051711,0.512869634614799,0.736149474844425,0.897987987192654,1.09733063496729,1.35653890910018,1.59262551873535,1.70137135072168,1.65561931900324,1.51255528804387,1.33827250853706,1.14857755277715,0.926235846107301,0.669381337439944,0.398311570083332,0.125347679790472,-0.153426898566203,-0.434928002273669,-0.69918597026109,-0.926220776439272,-1.11114680603304,-1.26535009421301,-1.40446809043559,-1.51734119365537,-1.54678188920774,-1.43576601676377,-1.20638083558986,-0.958955996572101,-0.76833893978319,-0.603311924110243,-0.374179211613326,-0.0479635766178224,0.307338881511788,0.591826298792296,0.77188391011977,0.905154694222389,1.07098760032269,1.28049057502281,1.4640534776599,1.54763754730987,1.52184414313136,1.42498859708311,1.28211169079,1.09019907604513,0.855575596951823,0.610017193800556,0.374051326503789,0.128444403589901,-0.150404760205383,-0.438145380549376,-0.677473698336597,-0.846863716720873,-0.986437573343833,-1.14592437152838,-1.32496782422883,-1.47055815496183,-1.51711803279644,-1.4304545956624,-1.23908979918962,-1.02652143819859,-0.861167496068639,-0.721781635195174,-0.519908332818629,-0.209920935522074,0.147537454805791,0.445788153134852,0.63664116838214,0.761608913884979,0.892323093528167,1.05429005102218,1.20658953136524,1.28496609758813,1.25717078393147,1.13882448378138,0.966284221164777,0.764292074656886,0.541815910352711,0.309324147238845,0.0845419308608538,-0.121398738636653,-0.311014780843728,-0.490377295673228,-0.662051764447203,-0.825988689940094,-0.972813845868261,-1.07642284503159,-1.10583511784409,-1.04602242372256,-0.906782369048057,-0.723233332663573,-0.544484678333134,-0.393003310425309,-0.231904561155136,-0.00818923203173225,0.264885212359941,0.505857191819754,0.652696603132297,0.719203484757498,0.762149529934523,0.824576609892504,0.910156205048793,0.979542689296307,0.969498446553658,0.845660981336908,0.641148507537823,0.420673971820176,0.210431258096579,-0.00989342329110178,-0.253566397581337,-0.500694185414282,-0.725169438751358,-0.915386326410688,-1.06295011460527,-1.15372824773762,-1.17480132035618,-1.11564277349885,-0.96507858697011,-0.72770798585369,-0.445985947112129,-0.182382012140537,0.0352952892491229,0.237354852416707,0.466709265485138,0.71973427364895,0.947930068749824,1.11127022561343,1.21124729018665,1.27414830266908,1.32215025372916,1.35954292769119,1.36319426181484,1.28382707835734,1.08203484640688,0.773674008678965,0.424635793269768,0.0923811544764514,-0.219035143467306,-0.541330598844429,-0.886799824175697,-1.22031729024716,-1.48782282730682,-1.65977109893459,-1.73310997237318,-1.70476027627001,-1.57519847275351,-1.37911822950842,-1.17638021932312,-0.992477449861969,-0.788096683678164,-0.511063195346031,-0.172821461454657,0.148933167774541,0.392105255889135,0.577291761656113,0.772715879123738,1.00109180421757,1.20937114466836,1.33130229723275,1.34769078373088,1.27456041891629,1.12601533466749,0.914999779677863,0.670944604261091,0.427594913880103,0.195162860263707,-0.0403152725734347,-0.289701772645342,-0.539377854658788,-0.754320042568257,-0.897249258958161,-0.947744901657383,-0.908746454754096,-0.798801179124746,-0.643375288351005,-0.471615117242908,-0.304103549679824,-0.134326652265289,0.0608880812133256,0.281188024482065,0.491042350645151,0.658841364939365,0.786310452164709,0.88731278131366,0.960930373844478,1.00002409079221,1.00283735293569,0.957885047397599,0.83807347816957,0.631292522932903,0.364181703897996,0.0790602055063237,-0.202138516978143,-0.477607275903124,-0.740961062663974,-0.976549044954267,-1.17939170727164,-1.36047274961303,-1.51866894118426,-1.61841652197559,-1.61462095322376,-1.49654565202951,-1.2903496560369,-1.02567003849167,-0.723312916105665,-0.40780892423257,-0.0969353946387634,0.223396821174407,0.577709667523516,0.945930096220832,1.26444128955919,1.49563043800225,1.66720905030473,1.82739030819435,1.98177865253476,2.08604862268145,2.08766162066696,1.96778983952092,1.74903681969813,1.46760565285384,1.14293021469025,0.778104516919553,0.380788639346355,-0.0295434773601537,-0.431999092576679,-0.809798256061374,-1.14729677859796,-1.43581223698657,-1.68633132956533,-1.92220067389054,-2.14528943584109,-2.31268248796537,-2.36036451132081,-2.25695583673587,-2.03328747669481,-1.75962256899313,-1.4917661717702,-1.22792395461323,-0.914570293683424,-0.510179890500842,-0.0485179643763953,0.379469215201616,0.709833885757542,0.952986593498396,1.16336882811653,1.38683175978924,1.62615278306188,1.8273577626837,1.90970680363226,1.8376800233911,1.65652530502487,1.44050188767063,1.2214313479049,0.981862758475946,0.698285912940631,0.372702100432716,0.0322318175111998,-0.290380152547331,-0.577951647841989,-0.830833380828148,-1.0496101745047,-1.22843062566676,-1.36383484890178,-1.44565391928671,-1.43717821248213,-1.30293678794231,-1.07533334559061,-0.852902886055433,-0.692021214617226,-0.529742669743142,-0.26716985504154,0.0863917828434181,0.411273404236841,0.618578683169036,0.739953535443601,0.86586030309381,1.03482827540585,1.20079629897374,1.28671989365307,1.25259495852622,1.11757674813551,0.929819864631003,0.721579689854475,0.491250153098102,0.223890291676068,-0.0755465879847125,-0.375393691118256,-0.643666176604939,-0.870840954080713,-1.06214078305899,-1.21797596450463,-1.32589497602807,-1.36076437536119,-1.29453248796428,-1.12638537813309,-0.906017864051733,-0.699703289612608,-0.518219735080496,-0.30328735604535,-0.0107889717818952,0.314640099946945,0.587804987885013,0.792249747163471,0.988214183978009,1.21015673083269,1.40969245228348,1.51580183659784,1.51919182182237,1.47031081114229,1.3900759294468,1.22720217957459,0.950961337005265,0.626358744343018,0.328498064156879,0.0519611706581395,-0.234783844494093,-0.51926758689629,-0.77444448608404,-1.00095086085783,-1.20922565670354,-1.38722090896175,-1.50154983088929,-1.51863535814026,-1.41980629448255,-1.21635221631234,-0.963075245530701,-0.729962924772201,-0.531730822160034,-0.304099413266575,0.0153911227313494,0.391986723803571,0.71593217504594,0.921983360861484,1.05225518484538,1.18933813073012,1.35658038221588,1.50079526360901,1.55058531393161,1.47420625783947,1.29458509107152,1.06167256067879,0.806871646299053,0.525032788135765,0.204238799462153,-0.139215043779509,-0.469167527616234,-0.765743612755985,-1.03769384757578,-1.29659903238887,-1.52850368702974,-1.69593503081271,-1.76029930156546,-1.69913145597796,-1.5204546580636,-1.27602715193007,-1.03762459092839,-0.830038464619366,-0.601526784046073,-0.289709502943921,0.0939062538424784,0.46877105288612,0.763424415886171,0.97073914593048,1.13871795016748,1.32093271074944,1.52152245481604,1.67842779787288,1.71534111902608,1.61381438074049,1.41818000990061,1.17703403107001,0.908749537531416,0.620382668167064,0.323722135282054,0.0217561168693973,-0.292649750396243,-0.607243388827318,-0.880225370661844,-1.08226547780153,-1.23501736746986,-1.38044138266129,-1.51532821377774,-1.5804267510169,-1.51853714589178,-1.32973790924037,-1.06747653097495,-0.790593822687425,-0.522872755951712,-0.250923830695076,0.0508725180242288,0.392418395973708,0.746552650277536,1.05071798323951,1.25255127547197,1.36377508192274,1.44695616554279,1.54002514592066,1.61444813055447,1.61021781043733,1.48737228851642,1.24458254479095,0.920176413120539,0.581123796610465,0.279600775815892,0.00596063791923353,-0.294857525518876,-0.64626777364386,-0.994331442994075,-1.25870417112762,-1.42467966757931,-1.55811042788556,-1.71717011511737,-1.87313005655852,-1.93855772679659,-1.8560958713424,-1.64325510344422,-1.36966554037734,-1.10609425794442,-0.877593660217631,-0.650631618602719,-0.374326784587856,-0.0403176235099589,0.303148789565485,0.593757205004185,0.804232360837382,0.954314062270304,1.08522685748885,1.22188149591961,1.34995336157258,1.42451266672289,1.40345691126474,1.27594482398445,1.06454406781616,0.811193838240697,0.561156673251212,0.341554462658812,0.14487635677565,-0.0551576505335631,-0.267232831928494,-0.472179504651602,-0.642977926825409,-0.756123212531187,-0.787513982121816,-0.720914532243824,-0.570783539783033,-0.388478866632925,-0.231080294433383,-0.110273989557641,0.0240099349726683,0.226271316258111,0.47777072409362,0.693051838191679,0.811899054691346,0.855021742423427,0.878529442853236,0.906932868970778,0.927644683835667,0.919445538136343,0.859107078849953,0.717615364520309,0.480094254954379,0.172203405781655,-0.150775448952753,-0.4482103221285,-0.716629475407634,-0.966095345659665,-1.19590079563531,-1.40302866734305,-1.5838780327249,-1.70332628439719,-1.69113746577529,-1.50976855373508,-1.21973660614146,-0.942935753483837,-0.747109973119071,-0.582239480072323,-0.347825566631857,-0.0137800988261137,0.346503812167985,0.636050172917112,0.820158922068391,0.935201635095685,1.04062851008567,1.16805479498649,1.29649642944132,1.36586017904224,1.32204237349412,1.15716615956676,0.90958220019227,0.631330889376322,0.358635161346024,0.101509565140211,-0.151852971296692,-0.415906759156622,-0.684049801991205,-0.927902836760989,-1.11897295821894,-1.23744967446016,-1.26248050528296,-1.17840989161555,-1.00124273754924,-0.781863451102574,-0.564170935100312,-0.340534104589629,-0.065319829852652,0.277020615836573,0.633320025866306,0.932090945609858,1.15946274781128,1.35659148424983,1.5497513427125,1.71535830640965,1.81548080818346,1.83762996933206,1.78547001235414,1.64963165609754,1.41116220914824,1.07390026299466,0.676587663767385,0.263617973025678,-0.147762440205968,-0.560562205355774,-0.96720378711426,-1.34465028372496,-1.67689634847008,-1.9610496159783,-2.19237140492368,-2.36015794459988,-2.44787497185535,-2.42069433959211,-2.24116224934032,-1.93206769782752,-1.59380620180564,-1.30483331021177,-1.01962615212071,-0.626467274566751,-0.108063481765234,0.41631206339966,0.826398672444026,1.12379850686408,1.38902268616705,1.66298477186614,1.91566042837456,2.10065361161821,2.18870004908161,2.16085695943549,2.01860795042064,1.80020959677098,1.54761376748595,1.25969863664469,0.9148332515057,0.531970526347694,0.165514719623084,-0.160706671662997,-0.472952289891149,-0.792423754950444,-1.09257341409428,-1.32284545449125,-1.45023441247583,-1.46638999496711,-1.37952166555084,-1.22063678377118,-1.04180697302789,-0.881252503215895,-0.726491036257013,-0.526404228469003,-0.25107777874943,0.0615093401458765,0.329174250876818,0.501695197705032,0.605005825021914,0.702900841338619,0.823816769238751,0.932736734488768,0.965935904559926,0.884767743621681,0.70241475567925,0.467567344695747,0.222687609224644,-0.022815494587502,-0.278362469839781,-0.538450174656727,-0.775754329786089,-0.970214810781369,-1.12941681960256,-1.26594510451735,-1.3639022222349,-1.38597675269554,-1.30935501700765,-1.13883638634397,-0.89425807948337,-0.608661918719536,-0.328627579000401,-0.0816529137348243,0.157557466698381,0.436122756242552,0.751365532548332,1.03484588041795,1.218044539912,1.3003011072533,1.34351341664489,1.40508481453818,1.48020214085247,1.50724813976322,1.4249264293006,1.22098510400318,0.92917795050868,0.593291811309439,0.245824368656443,-0.0889315566462791,-0.394989974042421,-0.674461194715571,-0.940990962282089,-1.18996020289746,-1.37916846682932,-1.44950371171698,-1.37213240505944,-1.18216502617855,-0.964997990430265,-0.791089321826921,-0.649459923429013,-0.460258066265823,-0.171984111084591,0.167341330591819,0.457782385543177,0.654495162040482,0.80014002398445,0.952937430290965,1.11112848015368,1.22198420605118,1.24569007282699,1.1861866180466,1.06360083775765,0.880994888987256,0.630212142209603,0.32111517253472,-0.00857479823417314,-0.317607039549268,-0.5914131892198,-0.842649283800351,-1.08450228030374,-1.30962497760564,-1.49025028159651,-1.5875165917956,-1.56428274764186,-1.40961157284796,-1.16338099005524,-0.902142848687296,-0.675687067320769,-0.455944443375303,-0.170068003926441,0.206420892079588,0.603953231941397,0.91782002531208,1.10652007168102,1.22392778019125,1.35655644808415,1.53272996180616,1.69124303817361,1.73605928476211,1.62193245076005,1.38899183941417,1.11757204459501,0.853798056973272,0.581205211179331,0.260868857268574,-0.109500870813348,-0.481249374091875,-0.797096067441754,-1.04430236973866,-1.25957163463062,-1.47025748495667,-1.63514662826874,-1.67022047812318,-1.54235182345015,-1.31219741798409,-1.07264746034795,-0.864845299713613,-0.657992672658055,-0.391280744438258,-0.0398917960057697,0.340144498356084,0.644817394252051,0.822978519514199,0.931011990492751,1.06468314516914,1.24992949282794,1.42108814275727,1.49194605133903,1.42409388827211,1.23476863852955,0.967922727588281,0.668698937145838,0.369575540539515,0.0812386463990983,-0.207497242651464,-0.512748305076786,-0.830447335352949,-1.12681334844321,-1.35828170453785,-1.5040406784942,-1.57527373635778,-1.58804127460557,-1.53321408490656,-1.38764195828917,-1.15888247295344,-0.899335554840256,-0.653955930477966,-0.404998425791832,-0.102964950660924,0.244446286878084,0.553191084304923,0.754932905395739,0.881467246109966,1.02560589413744,1.22638905579558,1.42116799604929,1.51324302231858,1.46262466046109,1.30283010669734,1.09294665681592,0.87079821218958,0.638280905839352,0.374423224644748,0.0681496603802111,-0.252060784229445,-0.52922690044472,-0.730216380762455,-0.878411150769666,-1.01449855213762,-1.12661278323404,-1.14535932241762,-1.0207061977194,-0.786615645177963,-0.533701139808418,-0.324562139531786,-0.145557315074561,0.0613232355859498,0.325138934175447,0.606066337060992,0.828886824446397,0.953787497839512,1.00880013727145,1.05209562454634,1.10755961119521,1.13994893195583,1.09001704473727,0.928700441397269,0.676511584476376,0.378331688774607,0.0672476595080112,-0.249696295610832,-0.576333651747563,-0.899919599506946,-1.18439855477958,-1.39900546762228,-1.54689513078555,-1.6478339019847,-1.69033296796412,-1.6220301221891,-1.40851891869809,-1.09555212087797,-0.783506103580577,-0.527400416895944,-0.287496431392097,0.000270279823570519,0.3305191356372,0.636204893844484,0.870293622834875,1.04249518331446,1.18375237517887,1.30752853224512,1.40295778451286,1.44031969251047,1.38671075535403,1.23524614042022,1.0102096835827,0.731099033606977,0.395675478598515,0.0187164192321505,-0.344610069068078,-0.649032590457244,-0.911462969169001,-1.17789972443429,-1.44789224057243,-1.65891072684503,-1.74303315973496,-1.68139295679321,-1.50611669850673,-1.27103394663876,-1.02575535101648,-0.78946677873783,-0.528560021463094,-0.18703259561984,0.231496891937288,0.638839256944785,0.952997453774858,1.18772755744996,1.41587186956406,1.66725765389702,1.8994373801194,2.05242278326437,2.0981300283659,2.04196424320111,1.90113149664428,1.68775686188541,1.40878126285042,1.07950195430065,0.729649959510012,0.388738557525832,0.0669960835822456,-0.245080386109632,-0.557529128317986,-0.86338420319564,-1.14326053671003,-1.38143759607461,-1.56262736738839,-1.65526687951819,-1.62542403656005,-1.48354432530389,-1.29953047617816,-1.14451152265738,-1.01398246830682,-0.831365004978912,-0.548241862556495,-0.224081345534752,0.0306254337280845,0.183732546495845,0.307188290341901,0.469660545416395,0.652957013532749,0.791716397246485,0.853209904458575,0.84645129544405,0.774164073466638,0.616352151153167,0.374174743721615,0.104245906058632,-0.12318009339565,-0.297482791564941,-0.46836351304389,-0.666849694445721,-0.858842146140974,-0.996285057107861,-1.08185898239318,-1.14650937433292,-1.17907698345039,-1.11967101741054,-0.932772196601943,-0.665071628287133,-0.408611702067913,-0.203863203964654,-0.00153052232227444,0.260717283192356,0.565797063924985,0.83345133925578,1.01326635552472,1.12755698927798,1.230823996885,1.35335886326192,1.47733822938767,1.5499381008595,1.52696817989456,1.41345090419152,1.25165312290859,1.06506136604282,0.833435676075858,0.539264946556908,0.222035949167779,-0.0471839996175168,-0.247620043592344,-0.430649538030166,-0.644785172249862,-0.86705311377878,-1.02502607403843,-1.06382190055392,-0.982183804808199,-0.828317892633043,-0.670415184392063,-0.550170673115417,-0.453631741399369,-0.334216053402116,-0.163904058454017,0.0402506908086031,0.227561733946403,0.345124824491742,0.376016684668047,0.359912340013963,0.361218681054752,0.401656723350136,0.431759654938306,0.375913288380587,0.19905395680996,-0.0681088554168113,-0.35574098178459,-0.607057284481868,-0.815940257779571,-1.0146405298334,-1.22362799874329,-1.42202639137471,-1.56688151606355,-1.6233648822861,-1.56906062138458,-1.39201460219811,-1.11073269349096,-0.788453481344423,-0.495711875841414,-0.245971821746253,0.0122105085170062,0.32334465859061,0.659179955198323,0.943430589173997,1.13444734158565,1.26139572604056,1.37757280542327,1.49902250932623,1.59644587952956,1.62836472579652,1.567577809785,1.40487845197507,1.14493534720821,0.809730417809445,0.446497868799974,0.115381856355045,-0.154178344712191,-0.394212699679979,-0.658730727760813,-0.938236959708558,-1.13349103478445,-1.14384554777859,-0.981333036838057,-0.77057570387914,-0.623432082816889,-0.530108560523236,-0.388744061503971,-0.131952384615795,0.196114662329995,0.49051375184811,0.693355052997812,0.834161459800148,0.973294450785229,1.13075853194192,1.2733163946989,1.34823401065405,1.3203194693497,1.1928928488232,1.00220416109432,0.782525171666926,0.536652192449209,0.252001430805888,-0.0605428645407498,-0.365301880632221,-0.640162542401732,-0.894348089526084,-1.13985414350229,-1.3602775327863,-1.51511845186735,-1.5638378303839,-1.48494505017427,-1.29236592428509,-1.04386869170319,-0.811027868678191,-0.615397312987949,-0.405293624600088,-0.123609544756982,0.206172424335398,0.491730595903218,0.672829032137658,0.782107251388659,0.894044739285089,1.03678061836525,1.17103764598247,1.23706558979004,1.19874162039662,1.05200547046742,0.81918568464203,0.542548126041518,0.264341258146451,-0.00320715856288965,-0.281551953446713,-0.584696897873947,-0.880919650881325,-1.11796607736491,-1.28489702964447,-1.41944190180397,-1.54106957639786,-1.59957176839779,-1.51797658729088,-1.2897529957373,-1.01103025837122,-0.791871823806108,-0.639671504085293,-0.457754156936899,-0.165479171426004,0.205317687493026,0.542962718506267,0.764172362143664,0.882961331471362,0.990227812511715,1.16746266144166,1.40231718832056,1.58805539523051,1.62073733698803,1.49502064730881,1.2947678124531,1.10097969221579,0.927288768587942,0.739422092335839,0.514023007783242,0.266190807874973,0.0276886468759117,-0.184722601959899,-0.370643780147152,-0.526288368638334,-0.639264441117315,-0.700358331571044,-0.706913441506211,-0.65912736034702,-0.569859686465176,-0.472809138271471,-0.397035376293688,-0.331345599844961,-0.237655114639346,-0.107302345323239,0.0168640021333434,0.0875679784206856,0.108178463869859,0.124203985218499,0.164718043377061,0.210193386024509,0.221160650481368,0.17669923337204,0.0722004708384284,-0.0954237671749071,-0.314461763917014,-0.547587781751797,-0.760045884039842,-0.946500933532278,-1.11287629930351,-1.2532818449947,-1.36609877781128,-1.46431043805481,-1.5358855894757,-1.51856591146053,-1.3598867423121,-1.09497455325986,-0.824743343747744,-0.61200007820623,-0.422756432392337,-0.174765731349514,0.167864086331236,0.551342384384892,0.881879765249027,1.1177882887946,1.30236430566552,1.49960566207124,1.71415868851137,1.89184324137786,1.98558027951732,1.99357850914826,1.93150533141638,1.79477946778096,1.5699110137176,1.27403877928724,0.958856519138286,0.667259491855975,0.397140925899604,0.114264230242253,-0.203729080909536,-0.536033688624077,-0.828477245453459,-1.04096080303246,-1.18534897850215,-1.29798536118104,-1.371758743665,-1.35043729187042,-1.21205753291904,-1.02055636339569,-0.852707367169468,-0.697547241373574,-0.477533466166231,-0.162393695908646,0.184178019617369,0.477827459511557,0.696274412048825,0.874270801033286,1.04554805415765,1.21254431380765,1.35596060264696,1.44796200252233,1.45843466420572,1.36884143039457,1.18982725629285,0.958873988689863,0.713137338579683,0.466754611332106,0.216910553703184,-0.0385755442158815,-0.2992960867879,-0.566517201554428,-0.832461666461155,-1.06998313114417,-1.25205268960617,-1.38569350135049,-1.50919561425009,-1.64158616619278,-1.74233116055351,-1.73659550279807,-1.58617995490204,-1.33391725533833,-1.07228057935238,-0.858357203939968,-0.65961504608475,-0.397390926038371,-0.0482972339342203,0.313264808888309,0.586310651258201,0.74905293270819,0.87610299901792,1.0462179478061,1.25039447609721,1.4058036113972,1.44599089462952,1.37409134678642,1.23327601761177,1.05361263873799,0.841948760989701,0.607986236108991,0.373475285236829,0.149432010730886,-0.0746168838057665,-0.304512595130788,-0.52240774712853,-0.710860201127575,-0.876412197210375,-1.02644475253092,-1.14242034238918,-1.20215505265196,-1.20471381328817,-1.14247860817168,-0.982185069994271,-0.722722403881303,-0.443117982227459,-0.228119079009284,-0.0554384674253938,0.177868023774688,0.508427204920469,0.842897332265245,1.06506571668795,1.16633929779598,1.23745884342584,1.35114845738076,1.48505328198378,1.55609823440537,1.50177081630146,1.3188958511674,1.04713581086282,0.737018456470145,0.424810882795387,0.117127643725169,-0.202660792735975,-0.54498221092995,-0.893027111053572,-1.21524064519133,-1.49171863285198,-1.72024266600832,-1.89953596561171,-2.013313959684,-2.03387361917824,-1.94739326735401,-1.78021475089009,-1.58868253142075,-1.4073639381789,-1.21190105723363,-0.948728590764022,-0.603303862145981,-0.228603515125335,0.099866208381469,0.353544575965247,0.569246754518794,0.800890221088431,1.06098287936935,1.30677411596474,1.47342465099967,1.52289664060743,1.47043537354017,1.36457668593485,1.24141816332729,1.10416638007491,0.942934465062049,0.75788435287102,0.557170916157583,0.344867221629125,0.123597799836902,-0.091343873669074,-0.268550509035117,-0.376677217051845,-0.404658360863022,-0.367452760354739,-0.297242044441752,-0.227901589452327,-0.17331269444418,-0.109911484288679,0.00649069843511285,0.187012460439708,0.380197153152451,0.519243554504337,0.594733761480104,0.656060541468725,0.74435677369199,0.849227369881582,0.926312200752507,0.929445455190738,0.829872395014371,0.635706436644062,0.397943849043734,0.172308710610954,-0.033563386823088,-0.256030283989394,-0.513370202168882,-0.773083761467742,-0.994032334849436,-1.17461887991909,-1.33607119075747,-1.47688706646718,-1.5704259588117,-1.5976578760461,-1.55569504810047,-1.43704294555252,-1.23302469305936,-0.970587762511697,-0.711432960566327,-0.481024561129185,-0.223218472995332,0.127120369737408,0.535504179587104,0.883519631816612,1.10310045265262,1.25144464408279,1.42791472338247,1.64695509034511,1.8258194505529,1.8814783266961,1.80472975815159,1.64367281235799,1.44920108722484,1.24494322014295,1.02365905553548,0.757131840784661,0.424655567052958,0.0466459352584618,-0.318517675621894,-0.625094416135977,-0.884369361314477,-1.14474089286956,-1.42274719870026,-1.66358820414115,-1.78245820067666,-1.74698212937132,-1.61154259611182,-1.46597995535042,-1.3534871783206,-1.24025244229004,-1.06124306765259,-0.792861433718481,-0.481004525805029,-0.196670225861341,0.0325475497702653,0.236167180101959,0.448543049237386,0.664946145800256,0.856914395100659,1.00483810034119,1.09460841387117,1.09986231302305,0.997635886327545,0.808091140729295,0.602283314522431,0.449147080222219,0.347577676546665,0.228108323176662,0.0384294176962899,-0.188646212089534,-0.375205680104743,-0.488086948875454,-0.55245924595272,-0.584174004214963,-0.556513534121044,-0.45368756469864,-0.322618558795101,-0.2317969557366,-0.184337629457985,-0.109338313459398,0.0453150068598807,0.23629471559351,0.363385832236074,0.374873568471159,0.318884367348283,0.29377584308238,0.35296751573062,0.451537077200155,0.483709273770869,0.380905612671983,0.175664211002246,-0.0362074205321313,-0.193910378796916,-0.320527120200882,-0.473583080766999,-0.665770067830284,-0.849762553724434,-0.971677779556469,-1.01945340532934,-1.01458819905807,-0.968509547300401,-0.859825851665889,-0.661958858276297,-0.392091862354199,-0.116606890936876,0.110333855752072,0.306465012277898,0.53440245793554,0.813179327131669,1.08460652954545,1.27974841158342,1.39387123990763,1.47410222141239,1.54986154266375,1.60220365863103,1.59461114312104,1.50529970732864,1.32499502114454,1.05101158712274,0.706008623216563,0.349915650147844,0.0413222501157506,-0.222499728666079,-0.503115527392131,-0.840327165286369,-1.19090271873292,-1.46969665208793,-1.63969828578826,-1.73269411506913,-1.78108262027703,-1.76132477911791,-1.6269488451852,-1.38272201717166,-1.09502136503991,-0.820582230628072,-0.549279220198548,-0.239648070311965,0.105348200444074,0.432374185135352,0.702899481519917,0.926066435435415,1.12386251013053,1.30196158901804,1.45833992746151,1.57969422219272,1.62356788180424,1.54380278716004,1.34452582917666,1.08235135194472,0.811387920746171,0.545948135011354,0.273634181891131,-0.0173933150262406,-0.325465703290385,-0.631213787534596,-0.899202456630279,-1.09387908281194,-1.2010651983625,-1.22831979709406,-1.1842638284967,-1.07546708986935,-0.929729747787988,-0.791580111202378,-0.669580678578726,-0.51493326602566,-0.288430688487239,-0.0306672845934242,0.175602638616009,0.307874574149283,0.428933991278891,0.600312339533707,0.800991528798545,0.950935828439455,0.996254759430134,0.947295959296953,0.841899742684164,0.700537286555262,0.526253550199183,0.328291981839055,0.125917116530661,-0.0697114328090631,-0.26443142248837,-0.466138243706467,-0.667013417847704,-0.844956194769643,-0.975243851557557,-1.03549858172523,-1.01115187868521,-0.911601006311452,-0.778502094351805,-0.660587411893813,-0.568429559713758,-0.461706094509893,-0.297067112043643,-0.0860871906577005,0.112532453075052,0.257698029646082,0.361672089542124,0.458944645066987,0.561784414861325,0.654959322421002,0.715514310814436,0.721764646067553,0.65226079137896,0.497803387699175,0.282633351506842,0.0607692103722171,-0.124424775689486,-0.276079543254328,-0.4289710135503,-0.601738625590474,-0.776280833776205,-0.918205790238208,-0.994984767506088,-0.974469581337435,-0.838000221052398,-0.616266761668448,-0.391281428825553,-0.226064254494509,-0.090258059935657,0.108244769416329,0.401408360989915,0.705729092150945,0.918185165698247,1.03843438048681,1.1528532949714,1.31049808873069,1.46404872791776,1.54131892133617,1.5281448606752,1.4511416776545,1.3135242791214,1.09471169577865,0.804591169107483,0.496484310825828,0.21604938803481,-0.0404060628957735,-0.307516338797141,-0.602881718842047,-0.902099215404339,-1.15513595418885,-1.3285145032354,-1.43248987586565,-1.49417077218882,-1.50316601503595,-1.41298184684511,-1.21224430937433,-0.963856270964213,-0.741263471895762,-0.542150268263088,-0.302019693631462,0.00701918782590975,0.327319514589562,0.582709486756932,0.767077591706101,0.936714771863689,1.12723859017766,1.30846785814033,1.42085484473802,1.43137903275867,1.34509011701142,1.17959458737945,0.948265654002364,0.66913649303832,0.372924408211583,0.088232984133836,-0.177605035285381,-0.43464952554365,-0.689917132377753,-0.936328718969067,-1.15912442942924,-1.34776081017428,-1.50080995326415,-1.61970525011887,-1.69507218079767,-1.69755996327123,-1.59083280326128,-1.37096434486252,-1.09472751027359,-0.841135745576753,-0.624936682521852,-0.375040155169689,-0.0319551589188347,0.356702086940501,0.681548062020995,0.89845988160485,1.0664293183763,1.26325497526155,1.49885114754526,1.71189746542821,1.82751618057949,1.81530772918908,1.70302073270999,1.54040717512505,1.35725409614516,1.15798562592989,0.938208251747091,0.691111519652777,0.411335795901622,0.109468862004409,-0.185927253671824,-0.452886573358785,-0.692870851478279,-0.910854043373368,-1.08802820483226,-1.190336955908,-1.2033489448342,-1.1499065039641,-1.07299009810584,-1.00031123622854,-0.918968983010482,-0.790359134001797,-0.603651284554748,-0.405915572102048,-0.25730459312067,-0.160880681891321,-0.0618659490041935,0.0798664699028903,0.238230177867552,0.352395657973693,0.391670403124832,0.368263376618102,0.29656852218086,0.172074763527838,-0.000898314001534583,-0.185980254736332,-0.341432285710849,-0.464720549829407,-0.591400108573687,-0.743142915162259,-0.892798004025956,-0.995339181590427,-1.03835408669182,-1.03818948405419,-0.994559457241242,-0.878672197685443,-0.675042982005818,-0.417423174050068,-0.165036615789568,0.0598189523616226,0.297389176197696,0.59789757636095,0.94849938038412,1.2755431822534,1.52209816862775,1.69896231623912,1.85257300099873,2.00689043192009,2.14565304558519,2.22819105509317,2.21066992392036,2.07250887567752,1.83808749827999,1.56030121119955,1.27108190609685,0.958640453634705,0.601176207765306,0.208537900457042,-0.182608089053824,-0.547109025140077,-0.89252196008313,-1.24069591436665,-1.59128607031199,-1.90747456134644,-2.14460563142995,-2.29172935306404,-2.36998670902935,-2.38657736149706,-2.31664324565779,-2.15000127074184,-1.9288991718446,-1.70320916981199,-1.46100537621476,-1.14329077086122,-0.73177468002263,-0.291033727337281,0.0934666325493056,0.403388963020928,0.693234729690617,1.01432457687994,1.3549776780937,1.6545688582367,1.85276464917637,1.92449804454642,1.89317080132075,1.8146562780274,1.72781395740308,1.61915777833888,1.45209506548992,1.22350737582781,0.968969266132615,0.716877716067862,0.464295073411585,0.203012008382965,-0.0565535512034808,-0.303474256645067,-0.547802565857898,-0.799501024616417,-1.0365485648954,-1.2172035713986,-1.31700397840383,-1.33474354229032,-1.27589047923081,-1.1580849274552,-1.02072346258036,-0.891683478761351,-0.746958284689452,-0.539883866373383,-0.273377928730141,-0.0103844019787516,0.192707608757089,0.335612253154237,0.453276980953729,0.572163748094629,0.695482924130863,0.806742046804629,0.86972027681178,0.842033686072725,0.714854394156969,0.535410690962982,0.367449560776926,0.22867309807515,0.0867693692111592,-0.0828794663742363,-0.259970222592085,-0.409303817629734,-0.528631869802089,-0.646785434121408,-0.777243239547699,-0.890679932355457,-0.942261397877696,-0.916483464023062,-0.832864169313259,-0.716131954782276,-0.580281098584327,-0.435387587818235,-0.281279248536716,-0.0939681919338412,0.147706498500774,0.412551369546463,0.625866187083897,0.744218361362767,0.801252071557279,0.867425289467264,0.977824409545231,1.10443557165752,1.18505936394339,1.17139893008577,1.05724311151197,0.873686515965209,0.666291506150599,0.469917529428495,0.284264354550669,0.0703384827508276,-0.204515764572257,-0.510635014935686,-0.772470916796582,-0.951526693069176,-1.0848745054247,-1.22580577579459,-1.36747542258792,-1.44249546085006,-1.39123419878587,-1.22475649965502,-1.02251452815502,-0.861409019710382,-0.739159765148649,-0.577463954115326,-0.314431737169997,0.0162422649012889,0.318591345839399,0.539471474215345,0.712266771282659,0.896012866724316,1.10444869621736,1.30570241392545,1.45967899597207,1.53370778498314,1.50317481514487,1.36685977163632,1.16179358562007,0.943459507196054,0.740895879403115,0.536060016517959,0.292653993287604,0.00296698513238555,-0.296599701894412,-0.556455965489591,-0.761168744069095,-0.943755371802894,-1.14541549047971,-1.36154866701191,-1.5372401067751,-1.6148737739004,-1.57568145993325,-1.44089385557538,-1.25112682717796,-1.04255397081422,-0.821878042452069,-0.560659697712116,-0.231085423648547,0.148498163618032,0.517542984585758,0.826397536781456,1.07525386532864,1.30068864049191,1.53489057685332,1.77573772989327,1.9820796759895,2.09672258204224,2.08641453082755,1.9650970861164,1.77761140404504,1.56417482999031,1.33881443086497,1.09100534163521,0.802969865767073,0.468935529317229,0.101148568903131,-0.276540435480321,-0.636804411155428,-0.961548589160717,-1.25687280563172,-1.54591036045135,-1.837838521199,-2.11094008227271,-2.32519546220325,-2.43803718679512,-2.41608739489953,-2.26190599754917,-2.03449070185062,-1.81167065389668,-1.61233349475094,-1.3757186753061,-1.0393716036885,-0.624823045196048,-0.222660657357521,0.103837127386042,0.377067959375588,0.657995155165075,0.959232629019159,1.23028355497872,1.42417058081102,1.54320683892839,1.60425461999905,1.59223963845872,1.48254992849512,1.29560947614497,1.09175238560801,0.906791065224988,0.719931337852594,0.496207248134443,0.23990392729615,-0.00842291262537707,-0.215985520138881,-0.385777932355385,-0.54420202039433,-0.70798142514889,-0.862850345548057,-0.970714566088865,-0.995466750881211,-0.924156633592526,-0.772503234947533,-0.579361798270324,-0.387511605660382,-0.208235227694997,-0.00496770184768434,0.263547222807616,0.580588837649275,0.875678575072226,1.09415422957293,1.24088862410222,1.35544793127514,1.46678137964879,1.57404087697429,1.65074141492412,1.65911042218569,1.57143387234457,1.38855361661127,1.14150584710579,0.874023647096139,0.615445852846202,0.362040309515333,0.0866935130489044,-0.227309828111287,-0.565036750019337,-0.893948999366013,-1.18907588622767,-1.44080743857005,-1.65194056058404,-1.83179341955089,-1.97725680858221,-2.05819058967246,-2.04427963943573,-1.95343525350835,-1.85064144777338,-1.7751241498277,-1.681422977286,-1.49768866117658,-1.23883735702594
