1.21474028380245,2.07739340480557,2.05729862563548,0.187967252397628,-2.50544446354997,-4.68490613140294,-5.68790417217119,-5.43112347239454,-4.31966153049987,-2.92651133207635,-1.65126718510498,-0.652799715695951,0.0707248197487789,0.521403739713063,0.63767164276101,0.406129616572097,-0.0339732893229039,-0.435361990335471,-0.599919518690989,-0.500143954668105,-0.248815298153895,0.0347650485528693,0.310332626469575,0.586440121577227,0.8478647594289,1.04665525563649,1.1667139135219,1.26426762968595,1.40926701771165,1.5897564479255,1.70069006904671,1.62905184294396,1.33750975362112,0.883532558420029,0.392794443137441,0.00740783662746504,-0.189201504130241,-0.22043013199179,-0.173528371407708,-0.114801130009853,-0.0826365595796317,-0.150144268094211,-0.418185718160645,-0.901155635383218,-1.45137526285695,-1.84160849739447,-1.92506997779027,-1.70362245932969,-1.26675004233621,-0.716565367165792,-0.159121826887291,0.293783301458073,0.570766065998588,0.676446901607301,0.652818226583955,0.525983583624753,0.320853409472441,0.108889584578188,0.0036177692457345,0.0989095701211734,0.405371281866131,0.821636772727228,1.16220720651291,1.25738432274295,1.07521033549996,0.745165774986088,0.434110784480273,0.20383783653918,0.0209713584255943,-0.110008844544252,-0.101112581085203,0.0874898624908131,0.322289374405459,0.380103750251272,0.157461523564155,-0.248911690669639,-0.657215717010053,-0.937651584765599,-1.04391877504771,-0.988371686839941,-0.822291141729089,-0.60512850075324,-0.369572634029011,-0.127196816245214,0.102294946416885,0.294575937486261,0.44784335965079,0.581269075258104,0.699342847804717,0.764686369435583,0.718642530199002,0.546615756419102,0.319026518190301,0.133531603275412,0.00912966936474181,-0.118169987089659,-0.276054455430702,-0.39093336656532,-0.38988146341982,-0.319804855226359,-0.299278304298946,-0.37771997798797,-0.50403672535795,-0.612748758428753,-0.672221948188679,-0.657291745355425,-0.548461871618868,-0.373824125696054,-0.196082890022186,-0.0371999721910537,0.141801617318693,0.365282073754914,0.580812157844934,0.694539407537414,0.647011019229051,0.439661169356046,0.113899297921551,-0.262894675301143,-0.596261322927199,-0.785769584939483,-0.774829069359129,-0.581250511357952,-0.273502684333067,0.0745572457517705,0.397706425116515,0.626667727665869,0.694101938372539,0.571936955165216,0.307935877671745,0.0254041909106568,-0.131681395767786,-0.0880571701219745,0.112499375918972,0.357033129745571,0.56297546760532,0.712735770449692,0.806455243195195,0.827648038745477,0.764961260841975,0.627449398880935,0.418692326321847,0.125207453715631,-0.243457890375762,-0.614108540737589,-0.874957762858367,-0.955861824851617,-0.878804919644394,-0.715531404284358,-0.50575433013567,-0.251246740091598,0.00784725716977559,0.161473824309867,0.112993360363457,-0.121095644513955,-0.421483912297271,-0.669439516326423,-0.817969035435711,-0.865126009591387,-0.798059151901583,-0.602688052834041,-0.316777215869038,-0.0221956368866933,0.233730525785457,0.47184388693705,0.714289584704806,0.922649378128448,1.04150441296018,1.07768824989412,1.08407813634755,1.0654686145843,0.951742525540535,0.692269798946518,0.350449060746085,0.0698040636871447,-0.0552543894812343,-0.0570219112291352,-0.0389822606292911,-0.062657740841003,-0.112545013356433,-0.164209802845198,-0.247032000813966,-0.417082903383569,-0.683077209244272,-0.973049965299469,-1.16832150892698,-1.17657818642362,-0.997994715168768,-0.729567025803164,-0.488009241730495,-0.318863888745855,-0.187669006665292,-0.052412950071225,0.0796946119866351,0.17084516060884,0.205630223152079,0.214405412139393,0.254479251118213,0.373162676318634,0.576019944236526,0.815853560634786,1.00916235409306,1.07136333544497,0.955440559820294,0.6836755325249,0.35241372656239,0.0827039041793748,-0.0593569834994168,-0.0898749909653429,-0.0532153684418172,0.0290599790987004,0.135154889589688,0.199291081423603,0.13451165784173,-0.0929828267361221,-0.426407580374181,-0.755068572415257,-0.977607389146187,-1.03923122653595,-0.942606558560459,-0.744465456922761,-0.523067533825857,-0.323415795890617,-0.139762118254908,0.037461285837171,0.177695700595793,0.237499173396495,0.222760585240323,0.200331051847429,0.243790458208515,0.375564308188369,0.556037589621085,0.710718407269595,0.765963340542618,0.685130547852925,0.496742873795806,0.282821792569268,0.119329675526966,0.026135729330068,-0.0169825334816831,-0.0219811062210902,0.00993513932294293,0.0457327151305231,0.0118222602723391,-0.151227712726998,-0.435037739914234,-0.767474416662205,-1.05077598371995,-1.19168936840711,-1.13149862413291,-0.88764165092501,-0.560517716591642,-0.263223050024338,-0.0321510712477829,0.178431391985217,0.415004126292203,0.662723233435208,0.87237926046997,1.02168172225296,1.11635275399861,1.13359145444983,1.00880138526279,0.713804534950582,0.329774527973724,0.00149030182661651,-0.182458314487585,-0.237793995476726,-0.222705068349854,-0.172864720122933,-0.113951508355999,-0.103749670921607,-0.220811130475644,-0.498710403468585,-0.875539629768838,-1.21241366031284,-1.37093176290761,-1.294556378771,-1.03804623042461,-0.72051747652585,-0.430555631819948,-0.165476541085312,0.127921148427489,0.458425348597982,0.769751760815655,1.02343425839888,1.25424185707565,1.49703731621977,1.67817072355525,1.63809395970966,1.29137655799657,0.745134403074524,0.226021448434666,-0.112729174952259,-0.284071045028274,-0.368067715661416,-0.382258249176418,-0.305463105851292,-0.195465622832305,-0.200199289851207,-0.425619187857656,-0.824115243646169,-1.22752749220898,-1.47224490538459,-1.48879733207644,-1.29985307385336,-0.972012328362927,-0.58439242388996,-0.214836050701375,0.0837548599491949,0.300987602604193,0.45249079944734,0.553444873735537,0.619842302281433,0.685850285349524,0.800367586367212,0.98952499638456,1.20736393181946,1.32874728711141,1.22567072741695,0.878087751929348,0.403956236405063,-0.0320817429125413,-0.335629070488991,-0.506161269963588,-0.563720284023897,-0.491463628343925,-0.2819815554464,-0.0223460556516241,0.123019388246566,0.0389494893252793,-0.249416079585609,-0.60927295246787,-0.894435899433049,-1.01565243729069,-0.962238920433568,-0.777339847003773,-0.512948961724254,-0.214959943617858,0.059858086522572,0.250478657893633,0.328498449555667,0.305327097216408,0.200739475354353,0.0350309482074867,-0.143735759480816,-0.26007102184348,-0.255597957823136,-0.117904551564253,0.133541774009844,0.460521567517945,0.792424670915072,1.02400104417562,1.06181184266143,0.894150753439408,0.61573667185236,0.366083629372614,0.226699137299606,0.179568024306828,0.166223375678165,0.161135236781505,0.161474969432377,0.126955084808755,-0.0166525442588036,-0.294505795485879,-0.631409002943937,-0.907198956144131,-1.05282940409933,-1.07969821004146,-1.03240439556488,-0.939938485175866,-0.813233874348877,-0.666136435919321,-0.51979253802671,-0.38552232386957,-0.250975292004289,-0.0913255777891511,0.100680850684931,0.30024644471426,0.477464034274789,0.638995312541269,0.823816083036202,1.04023839822893,1.21504860298575,1.22939793136399,1.02097448789348,0.651270200450279,0.265466885439951,-0.0178489498202858,-0.172425949603481,-0.22363542916891,-0.178789759353967,-0.0419521178267003,0.114006938243565,0.1538722332184,-0.00662695207875681,-0.31771872729135,-0.646729805094167,-0.890019622617507,-1.01415932170771,-1.01679188193147,-0.896929698001388,-0.6746914966492,-0.412890706169855,-0.19231050174182,-0.0517636041879645,0.0500216481998266,0.198681680903068,0.435201068927608,0.710522790063446,0.939318522484372,1.07703179404019,1.11707918778018,1.0370177199361,0.807405354136156,0.468252871794645,0.145709491662653,-0.0448966375109823,-0.0873955567609855,-0.0338546594853366,0.0714292809036072,0.190950212017954,0.251402412569583,0.170050356728284,-0.0691520945015584,-0.399947220653673,-0.731090303409802,-0.991540786267196,-1.13351792812615,-1.13691426361577,-1.0246172292525,-0.853857060049349,-0.681379977825582,-0.533630413202851,-0.396232323765349,-0.225123075047692,0.018892131367568,0.336280669490343,0.68765173110007,1.01450395614198,1.24961826537818,1.32290019741725,1.19139485183729,0.88324808655636,0.505623248799699,0.190407912315652,0.0167849311792173,-0.0195056898410874,0.0306823064274616,0.114764389554378,0.169557766444187,0.0984175462679126,-0.180017581543777,-0.644612396722843,-1.17121836507671,-1.63345919439914,-1.97518151922712,-2.17829224773817,-2.20484032337109,-2.00954216653675,-1.59876236291236,-1.03878424509746,-0.397280220847521,0.297013202430124,1.04515151318951,1.85878819187107,2.70631591825402,3.49242685157956,4.10330915718943,4.31879109151384,3.86149363491926,2.6368452263445,0.811368626700713,-0.760464401244594,-0.885461605133602,-0.0942199369031024,-0.291160562602887,-1.34018525254855,-1.34859851958636,-0.509562393990529,-0.799721936454465,-2.49161567182176,-4.24540037858962,-5.26484352130697,-5.40220221221861,-4.68274637382341,-3.37675335450045,-1.823039773454,-0.279357099387097,1.10222436295416,2.29800959002215,3.28450670557337,3.99101719111781,4.40410747734064,4.51765562346028,4.26758725881575,3.58682195205176,2.4495566361637,1.29307658240793,0.992482038723275,1.42859639444839,1.33327159106654,0.506910960527626,0.11630696697231,0.290949032481192,-0.150113066908406,-1.59186065995868,-3.32505493167297,-4.72702004650879,-5.4463493857665,-5.27224695056092,-4.32166770163685,-2.97200118896446,-1.64664299552317,-0.62192647557008,0.0685145589530613,0.509271666621562,0.756346938137845,0.831352795659202,0.80470943681248,0.844886272516683,1.11816222805116,1.61077903736128,2.10702904537459,2.3748614683048,2.33961086156929,2.0851886691401,1.75435181069176,1.46661936605864,1.27470356001639,1.15062831631644,1.01390553804071,0.788997194405993,0.445932701004102,0.003097859159204,-0.481634950818287,-0.919135987384004,-1.22340113752964,-1.36419795387769,-1.37413638615327,-1.2954466900677,-1.14490740528932,-0.94727943273794,-0.777263242426813,-0.735321796910562,-0.870517892609207,-1.1210646448251,-1.33127266246414,-1.35211985864767,-1.14855697767551,-0.79844261559958,-0.380620350982424,0.100134949260556,0.653516919714502,1.2152437468497,1.67757085966954,1.99382596128432,2.19447311271343,2.2934495112957,2.22929963528166,1.92839846375753,1.40695633716346,0.784352616231321,0.193525697533891,-0.305061600805039,-0.708824017665436,-0.997263469234875,-1.12328590167094,-1.09315285411815,-1.00056621483043,-0.941846066818689,-0.93420884089138,-0.948935948711439,-0.971984433738695,-0.979572671259337,-0.90160770473196,-0.683887323499982,-0.377316642468954,-0.110607992463435,0.0334557779974088,0.0800875929133597,0.0910780566341813,0.066393807323682,-0.0487834372224484,-0.272721352315413,-0.544282451537991,-0.774693141202366,-0.909680402862223,-0.937377638562268,-0.860523296660094,-0.664271796754466,-0.308861699323209,0.25046689598603,1.00919397654685,1.80342978994509,2.3418354948364,2.41558382509862,2.0231733989655,1.5223227153699,1.470480420556,1.77441391616487,1.6728546045486,1.08572060704273,0.806144592580453,1.0374322739038,1.09625579397753,0.59744252614206,-0.23770042983336,-1.1417305079343,-1.92321256997904,-2.43471667720276,-2.6555231425164,-2.63621760380738,-2.44363300265052,-2.13093663371841,-1.6928718939893,-1.11667008745301,-0.465633650692303,0.132731319618422,0.583771557966305,0.894691673232825,1.13045450666395,1.31022159073601,1.36998375803422,1.23472868938222,0.919242241064523,0.539980523075989,0.21443385573448,-0.0279328652984938,-0.20345952841861,-0.277828183247264,-0.188680438313461,0.0225032174770563,0.164900235155126,0.0338899873680726,-0.411341272322444,-1.01694579634678,-1.56430390788233,-1.90775521844077,-2.00170588609453,-1.85002526425284,-1.46571081501098,-0.86974299793511,-0.11702252139562,0.675703744546641,1.35325930588483,1.81430522135193,2.07656407260511,2.21267455708092,2.22386178469039,2.02787265794942,1.59681872925821,1.06576340188551,0.648208631431759,0.442261183562227,0.366497333917446,0.298341410477858,0.214118886131343,0.144239306070587,0.0402244800217932,-0.226913619737135,-0.722690960814189,-1.34646449582213,-1.8866661921238,-2.16570519223669,-2.14299305372502,-1.905935583237,-1.57322250535478,-1.20748414427146,-0.815713463629669,-0.402502193856964,0.0134874653948057,0.424993148648379,0.841625478176924,1.26483744022745,1.66393381578164,1.95950593132726,2.03190149325327,1.79372569858453,1.28631551060827,0.682667796817136,0.167675028685164,-0.178823878188329,-0.374616998771332,-0.445957163578111,-0.396519463242362,-0.267988275133547,-0.175844633263117,-0.238854411808298,-0.480125107614574,-0.815264689060268,-1.12395866203094,-1.31618461442769,-1.347679072638,-1.21278141337847,-0.943903479902034,-0.602357683982262,-0.246596312329946,0.0875355049681757,0.36755884966302,0.554731249840944,0.650975255084419,0.735591960101569,0.897942959309314,1.12241341752337,1.27979585154575,1.24767830695,1.01493374333778,0.666984038075024,0.306584694453827,0.00481226755915586,-0.203389557316229,-0.308812089505799,-0.313780652842673,-0.226599596726745,-0.0860791628102156,0.0119506932807276,-0.0450661479202756,-0.287913643559185,-0.620361197035015,-0.89044190736667,-1.00161899551917,-0.956689691081142,-0.817393287029407,-0.63753808780539,-0.43463730324126,-0.215644156645022,0.00043586362011412,0.209197134387965,0.438777780587238,0.699633601274287,0.942524851697818,1.10662331260022,1.17175705478819,1.11602338753729,0.874167105497315,0.421086036465984,-0.118687273108288,-0.525418439195215,-0.672827174296697,-0.621008406004164,-0.504697637595446,-0.3785194884846,-0.222255574069985,-0.070287892011026,-0.0544938596212839,-0.281737593584456,-0.699994096598442,-1.11725461632671,-1.34891795563096,-1.34503591707256,-1.19097885490442,-1.00037607577952,-0.81677253317245,-0.61386466608074,-0.367284007947476,-0.105122101684925,0.114033313209625,0.264016330059279,0.377136817052377,0.494143321771601,0.606388119242205,0.676410284942012,0.711936097444942,0.818257480895433,1.17578466832407,1.88604853029512,2.84737736648345,3.80619398136712,4.34959249083535,4.03781556533073,2.68996416792366,0.463023377985031,-1.61579598066445,-1.97435944499172,-0.98924415426912,-0.888855225610961,-1.77680771151372,-1.52027634782043,-0.133380686903118,0.114097799762974,-1.37394325674129,-3.20814440744332,-4.34617055100417,-4.49378636883774,-3.74212595876374,-2.54416096298684,-1.33705631252852,-0.325454927380328,0.456816250780351,1.08474002975722,1.61133981900863,2.01963448788668,2.26829864083377,2.29993923940621,2.06448427428594,1.5927115248377,1.0266145598932,0.542456206338,0.235266075513912,0.0886791492659576,0.0501320914100834,0.0918799492110179,0.181004757682935,0.238735022546786,0.17602956595283,-0.0424997414531371,-0.382816210353301,-0.759702036592072,-1.05737027131851,-1.1684448004756,-1.05487036947292,-0.780158639300437,-0.46755756759432,-0.212020643158613,-0.0269099549884552,0.12437355525989,0.252313207157407,0.315853900535097,0.282480975455418,0.195720251256034,0.161162665024493,0.267586228757048,0.52338511615458,0.846344107426016,1.09905643966866,1.15717627840291,0.980243683452082,0.635472458293475,0.253549058749974,-0.0513221939525861,-0.235577464169227,-0.310641096161865,-0.287727648823573,-0.17111077154275,-0.0159325564008656,0.0539948517573009,-0.0681196795547282,-0.378223215260126,-0.768978234665061,-1.10392881068848,-1.27149031770043,-1.21770355448987,-0.977977310555151,-0.662127635918268,-0.372963171562849,-0.141854028626356,0.0497235864238251,0.214218563451822,0.347363423773292,0.454622760673009,0.561314085285452,0.69726164119713,0.877936096670497,1.08411381813852,1.24187310195424,1.23973514643337,1.00691459280802,0.593989476975379,0.157864058100436,-0.15622036054226,-0.315368263273093,-0.3742992762273,-0.375214677609346,-0.313660240170197,-0.204088576900682,-0.134845008606345,-0.22542625147626,-0.527823562184801,-0.96847226708351,-1.38136921997145,-1.61082881614528,-1.60373791106599,-1.41063457444343,-1.10599266697961,-0.730623400853918,-0.318314769480166,0.0581978078200116,0.314581007771931,0.435384882974733,0.494078315530567,0.571356670760331,0.674134231073658,0.749716466470702,0.747642843952809,0.64768516608317,0.474825549438155,0.322198778036312,0.316151134572939,0.531114703028777,0.967051548250012,1.57394451469463,2.25949217512731,2.86699501394691,3.08773256224041,2.57487301646038,1.23643295950606,-0.668402267263492,-2.28975679114398,-2.5241632011463,-1.61947120048965,-1.08013458747811,-1.13132825562868,-0.592994158343659,0.436674333598974,0.536211371869238,-0.603801389971926,-2.02729422779018,-3.00295834382628,-3.27970287575009,-2.86107093085031,-2.01753143443292,-1.06948445941423,-0.229241147610724,0.398220703908515,0.808371368684764,1.04189492471333,1.15089819687631,1.17737357703899,1.11269120824485,0.924039055577769,0.634903691090981,0.343191578415155,0.155654993725789,0.122045528530838,0.225717681237404,0.41940896813797,0.657250015057787,0.888830781922322,1.04729053841145,1.07445563177316,0.953077496098805,0.704427225806458,0.376405126785077,0.0408425971920261,-0.23913642687187,-0.467085750714482,-0.726548479817576,-1.11665111203885,-1.62833993657243,-2.04164205346546,-2.00844556333159,-1.24036029588183,0.326684311639138,2.22312745952685,3.48499581815436,3.26274055373421,1.39645976854027,-0.791603083145852,-1.22600837855913,-0.344781966529568,-0.776816088548084,-2.26004028772576,-1.6778541160216,1.13762144463856,3.04970943507321,2.69781948396788,1.31842352245281,0.0197121696132904,-0.800481356393176,-1.03707575840605,-0.927240508157137,-0.788061339803169,-0.825231023582636,-1.05171004669427,-1.19875946559174,-0.981949723462094,-0.452045861294369,0.0374982023364309,0.220297736509621,0.191372395897459,0.182847856857849,0.172646759714911,-0.069545045041418,-0.585996117614294,-1.08756701319417,-1.22842641473587,-0.909397380168949,-0.315732365196725,0.24796247634694,0.560382971205377,0.609560557224971,0.560520925721853,0.581179613781936,0.693457130371106,0.807455193056699,0.86937469603521,0.909263303548732,0.940018829289617,0.882784009197981,0.64091390511628,0.221392419683571,-0.252460123153232,-0.636361227555036,-0.850631499827346,-0.893207756807765,-0.814333722358464,-0.688555442574274,-0.578432013773997,-0.498873142694174,-0.421198359903815,-0.319043216963744,-0.19859269920222,-0.0744117879557022,0.0718612881453588,0.288973263721257,0.60360899743751,0.971555416223999,1.2852419495207,1.43267586007435,1.35547860005138,1.07284785634418,0.674883492179813,0.281007726744891,-0.0299772183685156,-0.251555142114222,-0.399143739276912,-0.458359517896111,-0.423173031329133,-0.362548114834685,-0.394116007652825,-0.582097366270501,-0.884369332489779,-1.1961169673245,-1.42120282675861,-1.50532795418745,-1.43423346820891,-1.22288054015149,-0.901693944392979,-0.503408903029984,-0.0632443400179446,0.372499576376782,0.754646108069686,1.05664569104488,1.28051705191088,1.42499320065419,1.45370489882827,1.31314018859569,0.995504340126788,0.581193671815157,0.202965180726198,-0.0420699412414362,-0.140395232227057,-0.12829229215564,-0.0390968846790197,0.0993404648844938,0.235077757600467,0.288130181515179,0.187242750570775,-0.0793500964051843,-0.437363744681938,-0.758125048854753,-0.939550287944814,-0.965107650498618,-0.883033444997069,-0.742865755977288,-0.567887578845438,-0.373952681524133,-0.183839142663617,-0.0133828525886748,0.145427417697035,0.316169070537698,0.506160316211458,0.682670922129808,0.785899630723802,0.76651441447819,0.6140401128284,0.366193334406835,0.100716201533078,-0.100105780106232,-0.197010454229984,-0.203307292246267,-0.147489480873524,-0.0501487439196458,0.0512118824130576,0.0859754710595483,-0.00617499246254711,-0.218961290819045,-0.480902551442777,-0.702303064463615,-0.81078786321703,-0.765214642177429,-0.571666351331389,-0.291798678150699,-0.0121462719547152,0.210278380691514,0.369052729937762,0.48186275962353,0.56429401619303,0.631984010706346,0.706149572470825,0.8033444264194,0.91832173703687,1.0086938452166,0.999219276313095,0.828950166033891,0.510613092872902,0.131466097773155,-0.209356985223441,-0.452891843986807,-0.578429074062989,-0.581799007945008,-0.474733222205966,-0.300891943233966,-0.141668258644218,-0.0913986950006516,-0.202741816082592,-0.441189024756146,-0.700712820070409,-0.875843600515486,-0.922627588853471,-0.861023307308972,-0.737210190610965,-0.586984934824503,-0.422080586987717,-0.243721477544695,-0.0695779528346926,0.0620403340450653,0.130352622133998,0.168547493928455,0.236260169065063,0.350063313957062,0.461076720931804,0.502798461363238,0.441283508197137,0.285792759430565,0.0827507000931966,-0.100217518107792,-0.21891125630239,-0.292634014948217,-0.377788979892166,-0.501109203360773,-0.647940458127334,-0.810718437251302,-0.999039753772386,-1.18527575372661,-1.27617188898439,-1.15244882645723,-0.712819365270704,0.10677273287127,1.27637455603848,2.5617100950972,3.5017150587849,3.64259126833779,2.92992229737132,1.84251891300088,1.01086722859924,0.695530424112925,0.742125763829741,0.982832871784194,1.42932906101605,1.9967921392209,2.27796771733047,1.80406251087305,0.490294821667258,-1.26548506222179,-2.87691725127534,-3.90477267061994,-4.19409569927579,-3.84408632582219,-3.1137851440263,-2.30444161144967,-1.64624285151199,-1.23589091470375,-1.04346908312168,-0.969587011527905,-0.919180116450227,-0.841840839517658,-0.712620147810216,-0.506563310313091,-0.222494675695071,0.0936614689836573,0.394824274522927,0.695231806929654,1.05308431684177,1.49387415918906,1.96899031698065,2.37118625476398,2.56510634785272,2.4340399077816,1.96392732010505,1.29868180729417,0.665094932489617,0.212356059706527,-0.0527106661229362,-0.175521588222769,-0.168621308577993,-0.0565546601309229,0.0503172087268558,-0.00166685645739024,-0.286271322781343,-0.731149618714873,-1.16191370310125,-1.41037801321997,-1.41371342896722,-1.23439165948069,-0.982857955085659,-0.725521035113839,-0.476206368973558,-0.249279882495206,-0.0749948491267874,0.0399704992922719,0.131315311418296,0.240812377485601,0.373882753495173,0.500667482766873,0.592896595856003,0.649413851616612,0.677663224892178,0.659378760825525,0.561413488937187,0.393384264340332,0.237747912176131,0.200613235761975,0.324369614102502,0.548233252562503,0.755166324108434,0.855955557901462,0.825689940542856,0.671040258768099,0.390740379142498,-0.0160814673974038,-0.512740643103925,-1.00866942126786,-1.38658809634139,-1.56174076350533,-1.53298653173561,-1.37908210183068,-1.19806722529409,-1.04022210397712,-0.883882026696957,-0.667291940723634,-0.352204819801913,0.0400766145291229,0.462432105919599,0.892847936689173,1.30849881792249,1.60868837982261,1.63034301125516,1.29756635495268,0.738239704955061,0.20238728047988,-0.141163702716589,-0.299530859126833,-0.358484633333572,-0.3502392918198,-0.256411775149534,-0.111580237465055,-0.0433276290328231,-0.181831279603873,-0.536655364001157,-0.967986000532154,-1.27914961251218,-1.35121237851059,-1.2065065271444,-0.953169152111273,-0.682335962786121,-0.424148473528135,-0.170461545634393,0.100278006557343,0.409961201057976,0.755902234356654,1.09831865253963,1.3891187217921,1.60342546601091,1.72998824639968,1.74517561381242,1.62239274165575,1.36108048187591,0.987359343400861,0.569080067726481,0.2293887760657,0.0879171147773369,0.212227850303826,0.51627325764511,0.640229659327933,0.274864552907006,-0.377713076385267,-0.925114668640519,-1.38328937768912,-1.93338225683894,-2.40513313248562,-2.49550782779748,-2.19191241924581,-1.71475982178095,-1.29069951971816,-1.02437963929943,-0.858406599507603,-0.66659535134128,-0.379471123042729,-0.0179758053569785,0.353950505819772,0.695586775744585,0.99763092122598,1.23485605044146,1.35647076568993,1.34781886708867,1.27497256319704,1.22781963750784,1.21589743785937,1.15300244027199,0.961563455653079,0.667981640576568,0.37166821471197,0.140774692525683,-0.0258947051959635,-0.144649239130158,-0.205952515770025,-0.20914174301254,-0.205262001844889,-0.269977131823267,-0.436319586444391,-0.668345844566127,-0.892407278725036,-1.03805258138991,-1.05783809256715,-0.938454318516166,-0.709705355241703,-0.431049334945608,-0.154069628962601,0.102903340808949,0.346128505297156,0.58313590180382,0.804373056720797,0.972922677166514,1.03378960225732,0.948784343512908,0.729890297726767,0.439706712514524,0.158857235909332,-0.0550245537011134,-0.183196539199956,-0.225588239968789,-0.186899901557944,-0.103242413422052,-0.0561083525288996,-0.117709638428377,-0.290416388443514,-0.525917069811997,-0.777950040025556,-0.997643930533243,-1.10467252946052,-1.02414046229956,-0.761981079516577,-0.409738822661279,-0.0632639984227374,0.243788079072583,0.523066160317364,0.77569563456958,0.969545836948292,1.05573583580354,0.993276371777498,0.775462778653719,0.457314296153616,0.152190878782897,-0.0267130776804034,-0.0420905008938941,0.0486937586659939,0.157101625512486,0.240571664094988,0.299217637057072,0.302421707330556,0.166850355977395,-0.154563508110112,-0.582196926223707,-0.94669048345881,-1.11497280992425,-1.06426862438775,-0.854702818477272,-0.570267862455549,-0.286818416089033,-0.0551999363004495,0.117048969093165,0.261268811304599,0.40556874762694,0.536123442311196,0.608267162434828,0.588943591968903,0.480759027110306,0.318582062217975,0.152695022477789,0.0186238772630386,-0.0838320630976838,-0.162559917968925,-0.187599510576814,-0.112869439361408,0.0430570212407557,0.173250881504712,0.167023678545371,0.00587408703542687,-0.236049648334559,-0.46531139747754,-0.62207168004033,-0.679409578042637,-0.630716132305007,-0.493310863739125,-0.30632000514055,-0.104629749817072,0.102606062937454,0.314919491911827,0.508421178514202,0.644579925420851,0.715638377013273,0.751324694499852,0.757370098985226,0.67446388996139,0.44588007482749,0.124484940805275,-0.137880854409852,-0.230993445570351,-0.184657492701474,-0.106130328529219,-0.0543745894869439,-0.0150296283785532,0.0195207425664075,-0.00121729064154635,-0.136860423679497,-0.377610477386992,-0.632937105576636,-0.793100928344922,-0.798020095182698,-0.660749133692264,-0.443438301972386,-0.216465031982632,-0.0294943727217694,0.100448755725911,0.19197144056625,0.287668936071529,0.417037577229272,0.56103810066082,0.669127582097172,0.715363881643269,0.7097646664253,0.645565673430067,0.480685211575134,0.20856528553041,-0.0845418679916607,-0.281925372366901,-0.345236577287361,-0.32248336250845,-0.262838401487857,-0.178073693884972,-0.0926769513823448,-0.0724910768519894,-0.165102892434354,-0.338249112232938,-0.51037891948751,-0.626978873341058,-0.677710070495606,-0.655066486981153,-0.54118716501199,-0.342284693211942,-0.101881597453906,0.134990900140284,0.352069195270694,0.549713758507493,0.720023870029214,0.8409512593429,0.883002317938327,0.818537966817789,0.639299955306328,0.37670171751371,0.100570300495191,-0.113607775615083,-0.224128462973836,-0.235644848102283,-0.181438018025781,-0.102306642060541,-0.0390049171495219,-0.0257717323649192,-0.078239968748569,-0.193436410521435,-0.361303172796971,-0.558397636940513,-0.727710932679027,-0.791131866977083,-0.703404995556261,-0.491995527185649,-0.237338016435957,-0.0131468047722616,0.157779359752654,0.299575669566406,0.445807553139354,0.606480622135936,0.760688849903235,0.867747939972657,0.882232157497036,0.770732978111406,0.535575058157418,0.233849455718977,-0.0411270400979942,-0.222130536342474,-0.312799031769744,-0.352465602321416,-0.346425127950983,-0.269616387801616,-0.144677163891656,-0.0716376941684413,-0.146006952064129,-0.35654793977281,-0.583415937660924,-0.700399196702429,-0.674770481471469,-0.567734752277344,-0.449264950552169,-0.330971072950024,-0.184944266193586,-0.00451039667077886,0.17881574158067,0.336148583386886,0.476635435739771,0.62957236992221,0.797586254028164,0.934040397135157,0.962365896255683,0.822184341028187,0.521658128478471,0.157738850851992,-0.138318123792711,-0.297833612474474,-0.347080764560552,-0.337601140842777,-0.275653526137019,-0.148087803053282,0.00216914807989286,0.0684389296791295,-0.035904672060175,-0.296206451516856,-0.603587861369887,-0.8318604441504,-0.906313777387569,-0.822081254492187,-0.623027588442086,-0.367012092306353,-0.101004327944913,0.141633723257155,0.334405340577041,0.460245182178536,0.51992973082127,0.534780940262957,0.542621680064126,0.58203005312716,0.657819374281667,0.71133824500607,0.644821206270115,0.408381632242232,0.0728152076413452,-0.207572848666174,-0.325462033854337,-0.302079301785895,-0.226719675295273,-0.146601206395821,-0.0570423205672711,0.0198380426088054,0.0114906455227872,-0.127104496271349,-0.347340418227619,-0.544419915737681,-0.642813399131661,-0.627885504834743,-0.51816394490859,-0.345832258625003,-0.162062768432524,-0.0176382157927424,0.0841133052310453,0.190240255137197,0.336048276767679,0.500129034081027,0.632634723727681,0.703515474768981,0.704995196880878,0.624118961589592,0.441870281905448,0.175049942005115,-0.0903227749229685,-0.243241267144799,-0.250395131431911,-0.191193192579578,-0.158625056929059,-0.149385389725406,-0.100570231411231,-0.0214413550166848,-0.0211548827035758,-0.181517219829698,-0.447869482944388,-0.677736626877819,-0.769381222682653,-0.719190281800663,-0.583029718635956,-0.415476079457808,-0.237116325044928,-0.0377463699207922,0.190927439527857,0.422707741861094,0.604751624945296,0.703408068092409,0.733851238825459,0.732250579018071,0.70087811186829,0.599813902677519,0.405759058032125,0.163653144666845,-0.0439900951308017,-0.17222525867682,-0.231203039472183,-0.235626563788251,-0.182164200948045,-0.0941111420705534,-0.0448334555317899,-0.0959874491857524,-0.230243889019125,-0.377098930834517,-0.490420071149736,-0.568163085889876,-0.606095185949033,-0.573134602868328,-0.447693606776306,-0.256004105764711,-0.052045358248306,0.135297881359893,0.317362977838443,0.507998928685541,0.687472853315585,0.810767521058681,0.8404943615347,0.762935960770203,0.582641912465002,0.323882504504342,0.0456938104907652,-0.16760946492333,-0.263001270121848,-0.265175355801936,-0.240420000968315,-0.216881927259199,-0.174854779142689,-0.117701663230437,-0.107396591119383,-0.203498647512347,-0.387199664583824,-0.567283259192997,-0.656436614073077,-0.63252451673031,-0.530826537308631,-0.393259434820012,-0.236964168240737,-0.0644193565436316,0.115606168490604,0.284795674696033,0.425508199366181,0.530288170865623,0.604575684949177,0.658222015217045,0.68587416258443,0.654460524297398,0.522864977741954,0.288336393578027,0.0135190650122453,-0.204935511438718,-0.304808132861019,-0.296885325209441,-0.236774998563625,-0.168801184734506,-0.108165408739595,-0.0701507755287028,-0.0912985562797931,-0.201590104609082,-0.374636569822483,-0.518259623343719,-0.529052356663353,-0.363697430030529,-0.0637249736407763,0.271009698131938,0.522791786113877,0.599659926841814,0.487108623017991,0.270433327364792,0.0782108450105105,-0.0207000349906643,-0.0552671462538387,-0.0763542309366473,-0.0726106221512791,-0.00473839389700524,0.0915016302226964,0.0975355611844759,-0.0686266382849353,-0.353372046287543,-0.607018844445109,-0.707774190602321,-0.636315680058565,-0.450702481802049,-0.221016163847582,0.0107611679578091,0.237394540174416,0.468533912261005,0.691773013862697,0.847355728613322,0.861001296827478,0.711026510955579,0.454560138039726,0.187381838445758,-0.0161156473613268,-0.132792844827904,-0.178874809859491,-0.176362997021966,-0.13323232055733,-0.0591625211074411,0.00546579901646437,-0.00487824984220333,-0.130496450975614,-0.34290000529761,-0.559358811678993,-0.699660911566671,-0.728689534318979,-0.658042041649445,-0.521790369191714,-0.352638263881566,-0.174721207765909,-0.0072130471607621,0.139468001308813,0.271514954777152,0.401981882446256,0.528135306097071,0.626411459909037,0.670494638520219,0.645344739081172,0.545314559377352,0.37750342950705,0.179602032633578,0.0181312593015293,-0.0577862294496326,-0.0582793454041747,-0.0264762990782404,0.019082208971673,0.0800799473751221,0.121890226335891,0.0708947643448773,-0.109012572095604,-0.362174330048658,-0.582680657524621,-0.697966019756984,-0.702097709193713,-0.625635825099429,-0.498055728796805,-0.340306084630632,-0.174604836496343,-0.0273206161547079,0.0815249371302128,0.155589170076712,0.227427567967007,0.33114035462255,0.461372664190202,0.572487549347638,0.624099364598769,0.608126992917424,0.526718693615229,0.378352994924212,0.188069392444298,0.0222222604467295,-0.0604074249454878,-0.0625902802656793,-0.0335989188371903,-0.0127154303324782,-0.00900520800724344,-0.0266506837065854,-0.083033294277708,-0.195084915113849,-0.356314938686089,-0.527902154856115,-0.653246340491209,-0.691554650846995,-0.640335612179569,-0.522213267707547,-0.360787388648513,-0.178674061119616,-0.00222772439974144,0.150108649020165,0.277205697965403,0.385610803488909,0.480732750838167,0.568772451199112,0.647458860679784,0.684908013409304,0.626982591900414,0.448763010005804,0.197031587802046,-0.0342672233122418,-0.174482482459858,-0.21711084403447,-0.198361593499597,-0.152946063879058,-0.0963004299540447,-0.0399718408664044,-0.0142997086369369,-0.0683501201989591,-0.232650551912057,-0.468384485852133,-0.662226013536445,-0.699732549739031,-0.563462565766548,-0.352480929714609,-0.18755345451845,-0.0959608756260437,-0.00657794757753459,0.141941712243995,0.321492769908045,0.46171262108208,0.544295995840888,0.610560727836445,0.683869513840171,0.719602230036629,0.643951892095435,0.434107627514895,0.155567755254565,-0.0835235046874506,-0.218479603254361,-0.261634679160539,-0.249760739610398,-0.187790781534103,-0.0743760769552686,0.0365337988852599,0.0500477269430651,-0.0786617221933069,-0.296194627009171,-0.507154720254724,-0.652731581906811,-0.719458613974327,-0.704117211192282,-0.60742920085033,-0.452058090798245,-0.27481719182511,-0.0976200974757868,0.0789310999517357,0.255384303488948,0.420397512641999,0.559734834418462,0.66912161147994,0.747079868313128,0.772340062310808,0.705206952644976,0.531159125474373,0.297049941207599,0.0857875936884794,-0.0451531412688716,-0.0944881148990276,-0.0958138426217462,-0.0761628362751609,-0.038900372185373,0.0086617600047346,0.019047674584365,-0.075059415626988,-0.286990456467529,-0.539972652051736,-0.724729327438646,-0.785077086703359,-0.73566937580143,-0.613927796221716,-0.443196985113319,-0.243625775990951,-0.0523621975845719,0.0907118971184335,0.178998463564713,0.247057558456527,0.333368221904299,0.443412728580208,0.558742205338087,0.666173639223756,0.751102143292696,0.769488390536869,0.665589136214869,0.43457495176989,0.149798308655863,-0.0841076089964907,-0.201865038108969,-0.209974725474811,-0.165183408197395,-0.122827546835275,-0.10268535433582,-0.105702546449727,-0.151841675171103,-0.276146323903762,-0.477591477420651,-0.687233186101739,-0.805924654082044,-0.780011414245417,-0.639006777317161,-0.458885392558614,-0.291010567657999,-0.130031866509451,0.0513401190523446,0.24855557594491,0.419374949729507,0.531668640984546,0.601711358447415,0.669944462691713,0.742880164131935,0.77508244420999,0.710537906880965,0.532886480376792,0.28159275025797,0.0322556449877144,-0.146473086109027,-0.232095166401854,-0.245926761683626,-0.215569927428612,-0.155578039862983,-0.0861455980162139,-0.0502213382495274,-0.0961160123863881,-0.239755323085215,-0.444143134300638,-0.639259165933637,-0.763910031653252,-0.786501092871821,-0.697772484357356,-0.508224613071682,-0.255169675794405,0.00912462310255499,0.244362313477635,0.429916270533445,0.554116242621599,0.615952252977707,0.636008101572655,0.644289496472362,0.647970147394257,0.619355030119429,0.520880320552248,0.343914024196036,0.130216816205593,-0.0469343867608455,-0.138907438968499,-0.161820834173447,-0.165964566558536,-0.168351314333626,-0.143235490257966,-0.0890893646395774,-0.0740128515961268,-0.180845767412013,-0.411576364539637,-0.669823646055614,-0.83699881459384,-0.849709923902211,-0.715590799969738,-0.489544717546689,-0.242852679645082,-0.0283260317929,0.144272991836227,0.295970756911587,0.442029445683633,0.575394144191677,0.681598833733483,0.753651980046927,0.784863784310298,0.75481374007745,0.637946918997943,0.437807614031495,0.206080444251676,0.00935918277287271,-0.12260350272564,-0.198200435277312,-0.221457965088668,-0.185194928522187,-0.117999734056517,-0.100213091505697,-0.197795709194192,-0.391284723172399,-0.595240367378682,-0.73912265493752,-0.804392044711571,-0.791748929221082,-0.693571353391457,-0.51758582472931,-0.308714722788394,-0.11511640871371,0.0566780077700638,0.227133284967553,0.397233497184193,0.54830233957097,0.679809633938834,0.808531168471039,0.920379140938195,0.949964000416246,0.829604752957794,0.561274081842958,0.237773288900278,-0.0162807607919314,-0.13854211493949,-0.162844155139912,-0.152291075040081,-0.121947410196631,-0.0602867150642303,-0.00647825101630062,-0.0476391420720724,-0.22379315688331,-0.473205669609756,-0.690175526898387,-0.809300631681001,-0.81894526587143,-0.730774697842627,-0.576257227103092,-0.413050812047001,-0.285613081391271,-0.176221130706569,-0.0314761781361243,0.157487430372819,0.335580938789237,0.456048749306594,0.542071040410962,0.650408550211323,0.781272297395192,0.849019107216663,0.760638983793575,0.523586920634446,0.257576656046725,0.0833532182650798,0.0122803562246045,-0.0288391024691951,-0.0772579806760225,-0.0894613423380176,-0.0319788899465967,0.0317493917333952,-0.0103753410195878,-0.199061562096649,-0.464032346204763,-0.69551626841441,-0.826677288951164,-0.849624280947373,-0.782180755692128,-0.638088880393858,-0.428151306466408,-0.18116003387984,0.0533166271970724,0.238331690089675,0.380130428093993,0.510768475944806,0.64454910147367,0.763899483040277,0.837914695529635,0.833799547632159,0.719332946670392,0.491391807215354,0.214268059461298,-0.00532073415865209,-0.110522322083204,-0.141601322974966,-0.168077977044756,-0.199910897177583,-0.199461888141036,-0.165119681515547,-0.164413014232159,-0.272250693219969,-0.485615531287306,-0.710290000695656,-0.838303624657803,-0.835589014390774,-0.748764673372175,-0.632454144097615,-0.489056648503613,-0.291905942485045,-0.0482876879394092,0.196292741763142,0.416719898871412,0.631425261796822,0.854696265488028,1.05272591882064,1.15648839443703,1.11838442652449,0.968781480251062,0.789236705109933,0.63420062579746,0.488904386819918,0.221458644444248,-0.279276803184386,-0.888075317156984,-1.35083837332167,-1.23785613076715,-0.239732837311099,0.667872181729853,0.0586681185196576,-1.23772695534732,-1.14704490032959,-0.0828758841861037,-0.140275899664529,-1.29633398463773,-1.80152494918337,-1.10725864004782,-0.022757534669329,0.730936313719636,1.0076745272608,1.02133084090167,0.989453539883924,0.972504667259527,0.97078079687661,0.966592313493256,0.909232530851408,0.749633419404274,0.480926328097296,0.156618188113924,-0.128508164933103,-0.304256895692328,-0.377434731980969,-0.401530188406176,-0.400959686238999,-0.355039358864333,-0.264230617403908,-0.196735162577688,-0.234797792232492,-0.3829863616162,-0.556388790433881,-0.659975637036066,-0.663180217433752,-0.60062560116087,-0.518106878870195,-0.425396999890687,-0.299029030316303,-0.123807165476131,0.0819730654177977,0.289820161334628,0.49380788044752,0.699176239381126,0.885585419497101,1.00415670081807,1.00860011509262,0.874705053781215,0.606985283724761,0.259993067417778,-0.0553506011467705,-0.232888684393279,-0.258329252638599,-0.210784726866829,-0.165358057066096,-0.125384039844082,-0.072345236447077,-0.0468091822609281,-0.13116559338877,-0.352711508812112,-0.635825527726123,-0.859862385969011,-0.948349151347395,-0.896635606686136,-0.737122530874569,-0.507332285622862,-0.248048731892235,0.00204638751164847,0.227675184402711,0.435449768911679,0.620278973105394,0.753836061352112,0.820851135752383,0.844123240111214,0.845708721494835,0.794577702005302,0.631390404390122,0.359917888664251,0.0829141981364616,-0.0888154595491925,-0.150021870038519,-0.18081740592821,-0.220560309920362,-0.227248395198071,-0.181427841743193,-0.158965259544998,-0.247994567930033,-0.437793854409801,-0.640391047443386,-0.788001461590817,-0.857991032669842,-0.829166333993278,-0.679163726616045,-0.432175351625071,-0.161395349642619,0.0791736913330708,0.30167592068751,0.545065836302831,0.803394722664076,1.00927799933759,1.08440178708659,0.999305381545627,0.787313783944535,0.510179727328084,0.221572929350373,-0.0351221198463846,-0.214934707500157,-0.283453341606153,-0.244199839057611,-0.142841952162243,-0.0426536099716454,0.000240135967495033,-0.0522244868199722,-0.211562120644924,-0.451874108917013,-0.7081288640791,-0.89329694363861,-0.936206130942565,-0.825822146983427,-0.619495606764148,-0.389822037304178,-0.163256124181938,0.0735126581040329,0.318830393779882,0.543659460884435,0.734825352700654,0.905313392489515,1.03623365039253,1.04593831903987,0.86482297648492,0.535136365064456,0.198169305378882,-0.0282969683852532,-0.137462119821456,-0.189085202787484,-0.207676420879815,-0.166191629103355,-0.0697203811079407,-0.00599621089813625,-0.0762341600683654,-0.290124025377457,-0.554389851230435,-0.758040958939561,-0.851160337311357,-0.848735406125564,-0.783542192866983,-0.667494677471166,-0.492705275098821,-0.260844068317129,-0.00331246007055591,0.234751696226976,0.430302991482669,0.596246840988182,0.756394270839152,0.904992783133893,0.990735897472801,0.949083449424448,0.760375375531032,0.476061515757619,0.186461099212223,-0.0357948518590669,-0.170604510826199,-0.24395578384054,-0.286279480355884,-0.294655822482132,-0.248623604843446,-0.168200007767369,-0.134159395275217,-0.224597314482808,-0.431408253276921,-0.659742887237827,-0.813613543177763,-0.859968845601224,-0.807961856103283,-0.668194261204256,-0.45821371934314,-0.216517095474861,0.0216945457139974,0.248270995453231,0.460920137788551,0.635489532442113,0.745465140097665,0.798442206390567,0.821726148628528,0.810228455768347,0.71924492867701,0.522876583998738,0.258686745776923,-0.00326617199243495,-0.220299119715323,-0.382306617924988,-0.467651013350435,-0.435021739947267,-0.282667868405783,-0.0965910498883496,-0.00747125217450289,-0.0867777820553169,-0.29035135062781,-0.509825241110335,-0.671967839936478,-0.770986798788854,-0.807261483725747,-0.733766733230877,-0.498286517188839,-0.128031339178572,0.262326177301413,0.561432850845833,0.753620446840499,0.9122912544749,1.09595040045797,1.25805806274718,1.28130595675637,1.10382596750809,0.785813600803419,0.446888438869718,0.170353170169223,-0.0217771822281245,-0.136545395299531,-0.177705910316773,-0.13800109173608,-0.0258888791310356,0.0955680853501941,0.123247078895639,-0.00696296350319721,-0.263284157924381,-0.543574536244118,-0.742547009711004,-0.796709220513614,-0.686900086554137,-0.423154230054428,-0.0429802400866875,0.38746295670492,0.800892632448026,1.16559220380261,1.47969966264444,1.72838777481766,1.85133770910781,1.75330765217635,1.35611537654388,0.62871574497261,-0.43737950114856,-1.7900434365041,-3.25483328067508,-4.56779557246819,-5.33978055686373,-5.17647505932813,-3.94660954215142,-1.84946540883291,0.0779335307310064,0.313496769255949,-0.708235219968939,-0.750534120300775,0.298009827446843,0.324281848517599,-0.736151781479048,-0.794456526628006,0.646082472068991,2.28581772905638,3.26428049841242,3.41353996940335,2.83315542688212,1.92231096184324,1.1027807052,0.617129675842261,0.526235945029157,0.740466035271856,1.15191590738963,1.69508580281754,2.30072920959074,2.7470157200932,2.64946814861559,1.74940367927073,0.160194170575029,-1.25696164667484,-1.15683867894655,0.365992752358668,1.378703467086,1.15378182704059
