-2.01917132650451,-0.888880029658227,0.0788031550495605,0.701988105894059,0.962806945497186,0.521502138047776,-0.443752500841292,-1.06239353223056,-0.720621118619298,0.297376517109491,1.19057950134761,1.42152755911478,1.07900898709877,0.679233042444588,0.669796955215816,0.997922805591606,1.17831532648272,0.853819924828133,0.187154360087948,-0.372976788379179,-0.588688831773128,-0.580944808991665,-0.552442921464731,-0.531431770309486,-0.463372763743933,-0.439822702458082,-0.675727291415497,-1.23269752859597,-1.80747509525583,-1.84585981093741,-1.01191785410961,0.338499735721484,1.28651863897242,1.1665470468271,0.242930981277491,-0.546129679950478,-0.481329429809509,0.375995257413831,1.38309958432881,1.8904604573989,1.68757502420565,1.10446395292124,0.713221022258845,0.788458905725921,1.0242416146882,0.883582020554628,0.229614357402979,-0.525072562724238,-0.913705306888691,-0.880686676514132,-0.687355183408683,-0.571594199503561,-0.671102361647011,-1.10234581267315,-1.81247491477973,-2.32998015542641,-1.96075785339636,-0.538677629648755,1.06855555758518,1.58950651651345,0.683187259475868,-0.6168437543732,-0.996463807595242,-0.168739393731072,1.0790603523764,1.83981906779764,1.79324292586111,1.18625115228155,0.53331246844557,0.351228818549654,0.807045742500145,1.42029579328008,1.36240842522353,0.325783984011588,-1.02263643227627,-1.68128261367358,-1.32932083039609,-0.534987226483931,-0.0865770702463246,-0.357203409801935,-1.21602796108046,-2.18332384847925,-2.57362003486627,-1.85712820002064,-0.255095903797815,1.13381776659015,1.23048988743852,0.141374514873228,-0.864053370182753,-0.719782701620037,0.341711942503869,1.2564199061705,1.41573477531775,1.1439056379682,1.02537171847431,1.17636081379169,1.30075867156086,1.17271802159667,0.822426838867905,0.373438150144364,-0.0666377267243338,-0.373894141801636,-0.454773449013259,-0.383569273474604,-0.390246908621325,-0.613192029513569,-0.897914065911921,-0.985738477671241,-0.932974300922376,-1.10975731284661,-1.58724493854851,-1.75089762442581,-0.930815608815405,0.583335156158555,1.56998094459106,1.14004539363474,-0.235559474554147,-1.17112031596651,-0.749098421397914,0.664500704807128,1.89255374810575,2.0784062009379,1.35602105446399,0.549953352212769,0.340796124335492,0.719851054845702,1.14893688223494,1.12874374482951,0.580831603858436,-0.201219562348766,-0.814847829913309,-0.984722842056383,-0.712758789581294,-0.275275058482863,-0.0194812807911226,-0.140025528925886,-0.647090564226669,-1.41633310183771,-2.11417006738171,-2.18281419945599,-1.24084155075735,0.336954038647554,1.47060248986181,1.31165016583243,0.129586563125678,-0.916678737199092,-0.907427079426914,0.0519745980129506,1.13164041072756,1.65689926318468,1.59287016225826,1.31234983119876,1.11635416978823,1.02833435939467,0.907149140817508,0.636141164328145,0.226016331248137,-0.196714351226716,-0.492378042693893,-0.611398542049111,-0.587776829211028,-0.472895018804087,-0.378240188859728,-0.563609443083007,-1.25348925327912,-2.19458157813366,-2.57029705374928,-1.70771309280485,0.0441086743456339,1.40642764837573,1.3627180246194,0.177486973466851,-0.918390026203936,-0.978607630456682,-0.114754490696511,0.900352415323143,1.49216392236448,1.60418598583364,1.41747639213301,1.08514054607863,0.73660812737012,0.500962747893253,0.412326762337922,0.36812815384897,0.252871086510065,0.058806935685541,-0.179802336030664,-0.488967208708331,-0.845367295286279,-1.03189619275131,-0.839445532196219,-0.462108650674839,-0.473770149514881,-1.20615196275906,-2.16633418461854,-2.29890635386038,-1.06953593066037,0.744937880072223,1.64571078731125,0.934631607082974,-0.540255876720068,-1.29399867187849,-0.685835340392738,0.644849971214673,1.61848522227998,1.72379271169717,1.24288674586717,0.758774011424854,0.605783473709627,0.719827900733341,0.835625961856456,0.736154298876233,0.386328037294677,-0.0554024445575307,-0.353732491968428,-0.404407376014974,-0.328375360320255,-0.300346179664767,-0.326835671367858,-0.304885103369457,-0.277971063132422,-0.490102276832896,-1.10498998063448,-1.87973858079417,-2.17640113416628,-1.45782121487873,0.0621232876036217,1.33776397292509,1.3437443610902,0.14550434233804,-1.03534455996076,-0.999715024406076,0.221681718503074,1.46011446116051,1.68813090817837,1.0445022250675,0.4932616170707,0.636309483251939,1.14080717056028,1.31801026121958,0.934526687801897,0.300067577036745,-0.202486535145712,-0.430933552933835,-0.426474868733402,-0.285459401272484,-0.149531801644397,-0.186607525493325,-0.441034888370523,-0.70977353263689,-0.713322484543946,-0.490374106460835,-0.502130477234342,-1.11192112203344,-1.93420910752481,-1.98313295698665,-0.748328450187206,0.981359144063692,1.74493498488104,0.963471444412018,-0.431805365834109,-1.05509031267478,-0.445869333956017,0.757652033897578,1.65988951591405,1.81182459633816,1.32311320596679,0.678617165699954,0.426062431239027,0.731812912473829,1.14711399763981,1.01258896909137,0.207312946478427,-0.653851881816178,-0.893985718692365,-0.519593164166611,-0.133248963546882,-0.18376221819305,-0.519607211935942,-0.738116933144156,-0.798039882569299,-1.06751824183894,-1.69881704172042,-2.12986321558069,-1.54080965537458,0.0451920066118403,1.41660729049319,1.3298861311282,-0.0470740016183741,-1.22150256145955,-0.967286662875418,0.450240789922027,1.71812779843622,1.89752132747165,1.24044226343026,0.695208572794295,0.796237509259194,1.18421561850517,1.19834163277254,0.69469119013188,0.0936231948972778,-0.207034891698146,-0.207628818944454,-0.159772551234533,-0.246161510595132,-0.428995805621817,-0.55099699919529,-0.566442094800488,-0.629996715098161,-0.91628578753821,-1.39130731406665,-1.78186482272512,-1.7176888891529,-0.96841944288323,0.247489671339442,1.18257170006891,1.10925542482971,0.130690975948573,-0.784782292956483,-0.767119730989073,0.126356058171113,1.14398734722478,1.64040077552211,1.49180094762804,0.993936381260804,0.597846065090408,0.583375336203776,0.783166010608606,0.737208084315704,0.264681314963853,-0.256756999589231,-0.3566848824156,-0.0953428954645023,0.0180143587512373,-0.29238526718552,-0.719815336887731,-0.811933391795385,-0.564508586638561,-0.387428212218214,-0.589936965186788,-1.11982589923242,-1.71208745029947,-1.99949829908188,-1.56701430219538,-0.342235827557402,0.980873576850797,1.34170424388333,0.422588808289183,-0.860622454832432,-1.24737468411226,-0.41335845423496,0.832028919751468,1.50381124628007,1.33426972159787,0.766223977305432,0.368327968992012,0.368804507340374,0.587562574190365,0.673410680227861,0.439611917706224,0.0348071856406613,-0.224990146104474,-0.19400386508653,0.00387479388330107,0.235194551292241,0.568110483926342,1.02618970467935,1.18681889772489,0.417807195871393,-1.1992530733435,-2.50428294352575,-2.37105942878203,-1.06877961191295,0.0803677611561177,0.317471819305598,0.0274745780147737,-0.24404359879709,-0.510301876479367,-0.885110074884007,-1.10002449276449,-0.81074738139851,-0.0310967336517049,0.901134332945334,1.57240492028873,1.69929904298961,1.31926073107144,0.822097796190425,0.642840873953081,0.839011801293203,1.02258033580618,0.803533639719619,0.27206152770009,-0.13011215344573,-0.217660703769091,-0.254288298207201,-0.439479500981077,-0.548076342259747,-0.335216031793586,-0.0500381399999908,-0.224288815227899,-1.01119112982397,-1.91148326711366,-2.13138346567166,-1.23296316725087,0.362186776464648,1.51447935993266,1.32036746201136,0.051342010614318,-1.04804098655562,-0.963357883997993,0.208527926197054,1.51540568642865,2.06825217021877,1.69863157119268,0.927063945380618,0.434863358020026,0.510497030581392,0.883440447463592,1.04589522320478,0.735726884171453,0.113577847283536,-0.452843428537893,-0.686100716889277,-0.560673027882497,-0.323564642625331,-0.314201257136299,-0.630881112070794,-1.04224898804291,-1.33960054198893,-1.59913294299701,-1.86250734976522,-1.75117720654349,-0.844165712434298,0.513135604504091,1.23252957590105,0.642494658111898,-0.601408899842291,-1.14793952423886,-0.436679456729347,0.804891743855689,1.56015578830875,1.58731754286274,1.30080755519484,1.02216082780848,0.771193502881813,0.577473702793742,0.532426947748443,0.548958591110761,0.403608307917411,0.0516938382693808,-0.315314843459815,-0.530420094373858,-0.599103201584267,-0.593596462855443,-0.541775233285321,-0.451395499652273,-0.394487297845654,-0.539444699636311,-1.0309673537765,-1.75389519163595,-2.23765254849141,-1.91802531986233,-0.660812438596382,0.877333171130467,1.57938373643806,0.872104412348359,-0.571469722408457,-1.37542727307644,-0.77893463106161,0.703562472758874,1.88908592686161,2.02602064433116,1.32924005127576,0.61774509790316,0.496712306310446,0.84080254460467,1.0409819658904,0.719525627702279,0.113970652270416,-0.268125824878783,-0.242817092533053,-0.0738839308600326,-0.0834968617324939,-0.312951691733185,-0.573627776339077,-0.673608227636838,-0.551851392813543,-0.357120121613685,-0.462793589461867,-1.15506289876506,-2.09227735377687,-2.30541862765743,-1.14054688945516,0.787821271956572,1.93797363975116,1.34808063403959,-0.325638799813431,-1.44244836505944,-0.979788649880821,0.613219839365782,2.02313549252492,2.29967899569711,1.54232253218811,0.630971929971769,0.351201046589165,0.698828346627386,1.04055174174808,0.911182518334752,0.446820886887183,0.0163966155290233,-0.251101751993438,-0.426160575813588,-0.554420335479457,-0.65534785817029,-0.736338019538205,-0.708163241627805,-0.515633918413766,-0.413594651761157,-0.812245003118389,-1.66229215910519,-2.2049112590562,-1.64046892206824,-0.0956935225643343,1.28197067315373,1.39106603271359,0.308758208306596,-0.790143514642884,-0.833584901639739,0.183138090424223,1.40166560515159,2.0059132049196,1.81486967403111,1.20099498303221,0.669772404894664,0.509070643858171,0.680641426671172,0.924268896503767,0.946391118062814,0.592780677612894,-0.0443428175263405,-0.665121317272167,-0.975236146343906,-0.904349712550881,-0.626705174935268,-0.408592833699337,-0.461636858912766,-0.887285980561338,-1.62306213221289,-2.30479506561465,-2.27671686674752,-1.12424800895964,0.603558151387806,1.56521616993676,0.939786140410063,-0.573112442167485,-1.41881237019531,-0.780830877618835,0.744440222203107,1.93500394836804,2.09195957816344,1.44386837711931,0.720538984380442,0.465105612203916,0.662555486486107,0.919663577714606,0.926076630645077,0.66724362999035,0.247050487125805,-0.269518566268244,-0.746174361127154,-0.941129593721439,-0.787548529711992,-0.557509852337058,-0.552610082170136,-0.781851676443832,-1.12933850807094,-1.59652820917685,-2.05346315039159,-1.97707323683969,-0.954832509833179,0.531437634049482,1.30797314287173,0.744661496417432,-0.469016076767221,-1.03791256630375,-0.407461945075235,0.82855443218199,1.72266743325437,1.85737382493793,1.46050351208329,0.982348145236501,0.715769860190731,0.663549129593839,0.626571602450404,0.456158914205746,0.238015366041435,0.150297699154244,0.152161625215163,-0.0307934462278118,-0.514878646753419,-0.973973401742242,-0.953754004959794,-0.470750140497065,-0.0795042433289697,-0.259573765486805,-0.911730687291172,-1.54067004012198,-1.7426929038542,-1.39792427330292,-0.59558163758407,0.374643858318371,1.02882484753697,0.975229707975942,0.308243996003167,-0.392686834497588,-0.513791277710155,0.140895270235939,1.20823552493112,1.97855329724749,1.92312395090833,1.18120065671308,0.436156820742188,0.228354915103448,0.485943031473658,0.733433976544164,0.597567279991295,0.0804561098472494,-0.513068122575591,-0.849356208835952,-0.824721385572674,-0.589880555582284,-0.352242487357989,-0.23002044971785,-0.300574598858498,-0.653317240397528,-1.26108148945696,-1.8100962112993,-1.79557238813635,-0.948744835428605,0.371368819265791,1.32174423913472,1.2678581417653,0.370225894664771,-0.552854856152578,-0.726262026552495,0.00730282152182355,1.15331247184748,1.95449958051395,1.90632829657783,1.13910876476004,0.369565839622049,0.278239871136281,0.785994043254654,1.09581499986571,0.613554734146417,-0.337321128980996,-0.934378129692733,-0.834654987930653,-0.452556694352213,-0.337713621533737,-0.576809810847713,-0.87186350302603,-1.0139854227405,-1.12517695488509,-1.40042482080546,-1.66893013102975,-1.40635575617162,-0.380528329889902,0.813413622734684,1.19207926361259,0.472304498758911,-0.521268798162386,-0.729704119756137,0.0158219294931871,0.957469128282517,1.37279957771915,1.26691009413554,1.08395041999245,1.03680828684915,0.942013000402036,0.609020151520427,0.166108660084159,-0.0704182796740069,0.0229620183303793,0.200468975356188,0.0846000102911764,-0.41335863437394,-0.944447439923887,-1.04436229521114,-0.625024563199548,-0.131892514984059,-0.174222477541614,-0.93802400813134,-1.91564382051314,-2.24118578471714,-1.42385159162554,0.116958105297887,1.28309510971987,1.2346508955672,0.170632211518116,-0.870737974506609,-0.98379447127042,-0.135220191997603,0.976631565234839,1.63809799929963,1.63382676840315,1.18130604770239,0.610850990921326,0.219566120865349,0.233573584454704,0.632671292955312,1.01323967955598,0.863535959558388,0.111070913445514,-0.707356881311454,-0.958393263747311,-0.560944758354968,-0.0179800010549384,0.159128858596412,-0.0805682629104951,-0.437549952633336,-0.692732988544398,-0.920377231753899,-1.2652380032353,-1.56410611632217,-1.34403026240366,-0.370803634706022,0.853996065799226,1.39434632090491,0.792799969470977,-0.410009609132792,-1.13448328434205,-0.731285170665573,0.469786095884221,1.51896140486356,1.74031495974768,1.2622250380146,0.691728154963154,0.421149021892194,0.394303782728622,0.417655118290568,0.413355912664072,0.340504392617971,0.128972633072568,-0.177166268416448,-0.371795873825847,-0.325177781008789,-0.175915868993198,-0.148734563311204,-0.252116092093872,-0.33988284059034,-0.460720406170981,-0.88295394738278,-1.59087381377835,-1.95091331624209,-1.25826289405538,0.295111915584106,1.51145165123153,1.33066443600832,-0.011245692864299,-1.19814326431785,-1.16546319718026,-0.0220278855819463,1.27010964029115,1.83222493844321,1.47844866222781,0.720266171702023,0.302146650424163,0.535226636441713,0.987798545774095,0.968769206171145,0.344339058072069,-0.310426895060774,-0.435764727759784,-0.146912585286707,-0.00561066110836781,-0.297582328300971,-0.761595649773973,-0.962650996041733,-0.757994295827318,-0.44511298759815,-0.534000353585305,-1.22524510869119,-1.99957693643623,-1.93931182391205,-0.716744442977604,0.83078811740508,1.4110471789241,0.630144359707564,-0.575750074206484,-0.961724109275819,-0.226617965092311,0.897716426612171,1.58239985593004,1.62994033993822,1.33421449930132,0.958138601400884,0.568138141292003,0.263034030593367,0.240029401720721,0.481300686004828,0.596765890676265,0.240632721187091,-0.418002626239726,-0.880914215497048,-0.895696476945293,-0.62540385361644,-0.350286692728362,-0.247429015644458,-0.397816149864699,-0.790872581773581,-1.30679756129976,-1.7246625813498,-1.69793752001399,-0.900895476487138,0.474260824955384,1.48708891327795,1.21579115070223,-0.138121647279353,-1.2873143987849,-1.1479732445185,0.1397750643102,1.51304688787622,2.03544053611659,1.58434221543457,0.753548962732311,0.241334766804854,0.276347006618198,0.568661296542889,0.736934295350535,0.637881407792893,0.307041931447274,-0.152056333491723,-0.51426334357234,-0.518589207437392,-0.191558678748659,0.0744436923734487,-0.0573872795725179,-0.464999069709043,-0.746561777804882,-0.763414239607403,-0.828578688502865,-1.23427396023626,-1.65973488598286,-1.33133526873847,-0.00815556419813293,1.38589743202777,1.56931810631079,0.392246883898151,-0.905507287460236,-1.073885215623,-0.105450506346623,1.06092415620185,1.6492734541566,1.53878439075428,1.02208837876643,0.535486299641307,0.456751997189503,0.751943589231097,0.894757014208989,0.464451366350484,-0.266609157482328,-0.658572626988155,-0.518590594523756,-0.244879067475363,-0.20324963561051,-0.317038189394594,-0.350453755837133,-0.32865264962925,-0.514595422957549,-1.05288506141,-1.70224789965345,-1.90503023951853,-1.22322065199078,0.128228175176605,1.24843556162686,1.29974392163393,0.348596603168648,-0.679906970350234,-0.884067183452515,-0.124846287246148,0.993288500497548,1.68039046043252,1.5673188938585,0.946420149932665,0.432696142397316,0.357107356844555,0.548946544798771,0.671096208663187,0.578225142332716,0.304657672188779,-0.0789755550093293,-0.443936262971516,-0.59861201903811,-0.503042531486639,-0.388233500584135,-0.47587882548557,-0.691762028557149,-0.873348204861255,-1.11273352385525,-1.53604523013895,-1.79537879821639,-1.27196391674851,0.0015463026902661,1.02963635784941,0.870343076342628,-0.221396345582073,-1.04817462891162,-0.792618096868508,0.251525026824905,1.23357582756973,1.6466618925366,1.54683873281048,1.19355907263474,0.780842376276903,0.458768607630887,0.366743064264187,0.526914055399677,0.745284565056033,0.702748826068749,0.230340869143785,-0.475886372091969,-0.975571584663049,-0.969683135060787,-0.555249543969376,-0.121392054687404,-0.041737132399001,-0.426917111661888,-1.08842200769873,-1.69717532622908,-1.94933055719378,-1.62557166318718,-0.69804999207847,0.462160537082264,1.1411497584289,0.843505412971109,-0.137195049029762,-0.877219400015659,-0.655892846253529,0.405398801153825,1.51409085751782,1.9115759463047,1.44526399244731,0.625602664503598,0.172570351236914,0.378044175958515,0.865485549346802,1.04377799139937,0.731515272851601,0.202099850911762,-0.25289167246501,-0.544804881656985,-0.640817855204173,-0.487094087553889,-0.145747140396651,0.139624092862677,0.104925747568656,-0.296254233917907,-0.832683311517143,-1.22844807865777,-1.42201002165796,-1.46006476885073,-1.2023474959908,-0.449162852392948,0.544843696671487,1.03809945316417,0.58438858319701,-0.336029243175593,-0.774569838820135,-0.315787532271505,0.620049453804185,1.35625578958778,1.55870885680586,1.31583003101496,0.909066832417579,0.594472437977264,0.488035825445394,0.545615599046575,0.615041077189539,0.53719639169184,0.248592085321596,-0.186919460840836,-0.611337988991843,-0.821024579117571,-0.685331236894083,-0.321783037235714,-0.0709272845120146,-0.189488010667175,-0.644911401752564,-1.24549949896093,-1.76145033798768,-1.82734878226076,-1.0711890569023,0.313839208889351,1.34387795978775,1.09623999567851,-0.153578764247073,-1.05986757378706,-0.654750328892061,0.624671094408638,1.55239337571418,1.49857481657316,0.918753719067874,0.598232510640535,0.749078295112422,0.956375665967854,0.823577276180834,0.440351647532729,0.152246963575324,0.0320421826046987,-0.175871882612086,-0.580021884027993,-0.884303863459681,-0.750119888808411,-0.262531490503766,0.0882950343110807,-0.152485509912806,-0.982623174483612,-1.89532207908579,-2.23911211378926,-1.66496604403815,-0.365862446512606,0.929432235300659,1.32006847037814,0.495411867635693,-0.79057996569699,-1.33699967751463,-0.679517604176841,0.567589307378667,1.49880518345835,1.72434999454118,1.41106173651303,0.901893568795163,0.474804818082938,0.298105182695689,0.406707365158345,0.650528872234611,0.727331935755985,0.42868024760405,-0.0741084481632183,-0.353418456704139,-0.253783318759704,-0.114727894692864,-0.30275456421338,-0.693972397399742,-0.849130925074964,-0.650785138654948,-0.550653140552477,-1.03021730119285,-1.83962220212978,-2.02554204083124,-0.978301187180457,0.645996590041312,1.41566226170435,0.663810918174717,-0.719062224175972,-1.24071488921059,-0.388591446009494,0.985854971683866,1.73498044886311,1.52731612708098,0.886277815160565,0.475871169737676,0.541166065475918,0.866391461990718,1.05391944153959,0.851053711214874,0.337685264086943,-0.148311420162608,-0.321950266803976,-0.230019879883114,-0.169478440284147,-0.293980174198275,-0.411144951234687,-0.283984415276264,-0.0329493265938823,-0.0365046069891206,-0.445332455264083,-1.01134162661972,-1.42801312965475,-1.57292399670229,-1.33043788371751,-0.553806560079901,0.516058061436008,1.12414219947336,0.732254643114773,-0.245629919067944,-0.807130870757653,-0.426905390807347,0.509132855389293,1.2752396441511,1.50220133043707,1.27244706400759,0.846807847377033,0.506790863098458,0.475277885110197,0.711417351618458,0.830692238842423,0.479662122415975,-0.189396304271062,-0.633523781026626,-0.556916046988665,-0.236083483827524,-0.127464170973997,-0.326599186031741,-0.552557247007755,-0.571660330868718,-0.491637943575538,-0.629818662353772,-1.12809970151348,-1.66882068336829,-1.61569856531179,-0.644337129885996,0.690224690825997,1.29091935568857,0.673321955025399,-0.407655152586566,-0.781450085043301,-0.164565216461884,0.700879752693608,1.09144209238985,1.03241637162993,0.936663244982896,0.953782685316612,0.919437943508794,0.717346094360212,0.449034088856698,0.293244489457338,0.297313327454261,0.295913174618181,0.0580565179980799,-0.413672878722158,-0.783715415069848,-0.719792344360034,-0.310131481262523,0.00726052372744356,-0.074047485604244,-0.506823376311093,-1.14488132815038,-1.88421216995523,-2.36722889801352,-1.93692047234269,-0.404151982149098,1.26517124996629,1.64964509259692,0.452902020388632,-1.05004123317236,-1.38177176838684,-0.341722874216927,1.06683458429533,1.80540890808726,1.62353360188855,1.01217029007073,0.645075406633202,0.765404757176682,0.997991829652292,0.84732657105704,0.33789440989805,-0.0550527155893265,-0.0796399184037558,-0.00505597667153484,-0.169250043686953,-0.516170133136918,-0.739595608377485,-0.676257153029217,-0.407436241706119,-0.152506962726626,-0.186089448722329,-0.668353624726908,-1.4049326696373,-1.88550791007835,-1.66674711000859,-0.731000589320391,0.441341976904707,1.12312785019707,0.876852489893735,0.00521363182043392,-0.659415531170971,-0.530692996474903,0.256349341082026,1.12810368074723,1.60515612072825,1.52668669165688,1.03547962474821,0.505234297799529,0.307220928944816,0.472585218609361,0.6551728396915,0.534919827673126,0.184512131851936,-0.0777223455220175,-0.13311793414033,-0.184828476273024,-0.402482325694841,-0.62609206943734,-0.581371493762991,-0.28695688399422,-0.056294513084593,-0.161359778327927,-0.669930230547572,-1.46120367586839,-2.10256198771475,-1.88621665101473,-0.514291212185186,1.19639274731127,1.82945368485783,0.874949045860073,-0.621481919228481,-1.18954699365548,-0.444019783274788,0.784289562647395,1.5379367197248,1.57860217641021,1.26261817101776,0.96785223397988,0.791504397258227,0.652851192937217,0.494421849270968,0.321760262781239,0.137758309210633,-0.0437865668254825,-0.159694836600462,-0.199484383547739,-0.291132026272043,-0.52054437462162,-0.725228554913942,-0.687461501573505,-0.537140120193653,-0.7214674128944,-1.40880910515055,-2.03776258946018,-1.74908340971816,-0.408594883907196,1.00173527690321,1.29113719117163,0.323571975660501,-0.846647914072788,-1.08904237655541,-0.236935437967704,0.968331724267425,1.69353349998686,1.65894090287403,1.16660700001209,0.692337883830375,0.483737805677687,0.502207072394159,0.619860142544614,0.706660005875472,0.578770848243325,0.122555410300493,-0.468313604633204,-0.809692357423577,-0.773058174078261,-0.610985800088206,-0.558426817052998,-0.564073399696033,-0.575809590158177,-0.818404262239473,-1.44525657892361,-2.01233317434838,-1.72337407366764,-0.39560091321757,1.06657526009337,1.46564036016675,0.549340495157944,-0.733060123122199,-1.18988220377157,-0.450542035743429,0.867283249602634,1.80531582295031,1.81448932805566,1.09071105172751,0.360368451155641,0.236386883920793,0.635243452556498,0.908353983416073,0.633271477835819,0.086632912543247,-0.217391640527978,-0.211045483374657,-0.210506454412897,-0.350285293418568,-0.448400853740967,-0.39665320863079,-0.349443503790757,-0.464794499784336,-0.708188990302715,-0.994081683111741,-1.30002014371662,-1.49379519374159,-1.23368898678453,-0.337775744824426,0.740838497892972,1.1321813876085,0.471963373521635,-0.552884487554057,-0.837799869309736,-0.0172351540506409,1.18797131638647,1.77936291404333,1.46886735243018,0.799912984870646,0.455680932296639,0.633204155039975,1.02688950490877,1.18763763252054,0.851184558959156,0.115140882335722,-0.589883514759732,-0.824875250431037,-0.553508648310777,-0.16858438545043,-0.0563117431381172,-0.23992736285687,-0.520046133090462,-0.816872777153747,-1.20300883507201,-1.62965398874571,-1.76947087370494,-1.2471956621503,-0.0960798886726606,1.03186889356268,1.28515177931872,0.444770203899338,-0.687211246178766,-0.960968523919502,-0.0408453066360139,1.25733300472585,1.87064525623837,1.53968886477806,0.836058156452719,0.398935625335047,0.421145526683173,0.721626988387963,0.972765373351947,0.871466790683719,0.354118276688533,-0.308795739852993,-0.753322173549705,-0.835170369280591,-0.645976585824107,-0.352062005230711,-0.151730920358997,-0.27355166094737,-0.812840830326234,-1.55198363550144,-2.03479564976797,-1.85248372758241,-0.926680877655543,0.325788861934885,1.11244805039424,0.835322415139942,-0.255513272683994,-1.12849194212741,-0.911007358882115,0.262230218729496,1.45099691657234,1.88022837730337,1.56216702986893,1.02653735356677,0.681487604625756,0.55091332629046,0.497499816326282,0.482084091575731,0.518901341705663,0.49653755168796,0.2235410889941,-0.313935421183637,-0.833006604007609,-0.967623582439774,-0.638923851220888,-0.208628028933072,-0.182112510498488,-0.706953583019706,-1.42941484755078,-1.86565378446004,-1.78703510055606,-1.2061568396867,-0.244634052972209,0.733735105878707,1.07207643460645,0.381307628724078,-0.788360719097149,-1.25774314250209,-0.418860689849618,1.10130961948838,2.11607977437388,2.02191167330104,1.16280595195383,0.297449441329318,-0.0452606672445917,0.217038147278762,0.806841625917599,1.23468076152861,1.06634153249842,0.304331161383951,-0.524672924572524,-0.845080134111588,-0.594785268744212,-0.197015940805051,-0.0342769962266808,-0.124722712230798,-0.296928640096752,-0.485714534920461,-0.777758026215155,-1.23494369020561,-1.68219532261061,-1.68439930481282,-0.922609582392633,0.293082696220458,1.11346729819653,0.976355087434449,0.196443618177645,-0.442321172239677,-0.490575165288579,-0.0338519681977024,0.657677724041943,1.31467038799417,1.60565360336097,1.30616686195884,0.649846413762069,0.226338150673746,0.339310246323486,0.641047559292687,0.593890759227732,0.151404135915589,-0.249641014820954,-0.299701288757644,-0.164895536332613,-0.178175451995975,-0.370478089131476,-0.468108960749677,-0.310648090354349,-0.0991020293888297,-0.180971441838192,-0.708177458408262,-1.49550771397773,-2.0352389997126,-1.72478740255093,-0.449682385007705,0.984767596598181,1.4008482307172,0.478403003230524,-0.796652647113203,-1.13980743118946,-0.259675760550783,1.02647498658981,1.75635045503832,1.63694471245159,1.03759613655337,0.519020674702083,0.41666367141894,0.647481880769926,0.820557414690896,0.643834273529275,0.232352318921607,-0.0925809510433763,-0.241056558958894,-0.390022075609786,-0.610190811457871,-0.706959534542992,-0.514695899427485,-0.183459171425452,-0.0683204855403574,-0.398844290334555,-1.08784331303372,-1.77989969131078,-2.04027798950057,-1.58960521030187,-0.513469258946974,0.66633486007785,1.20953904008002,0.696157885482086,-0.466413079021823,-1.20760803789902,-0.744711837155403,0.610826798235131,1.76856124891243,1.94116628779274,1.2610149283641,0.452151815678606,0.138983797759444,0.404832268322162,0.799745884583193,0.802298942879364,0.374247025577796,-0.0565568905790325,-0.202703493914978,-0.232506924890327,-0.360698650097922,-0.466013927107691,-0.360498443296082,-0.155345422442022,-0.0774414154670341,-0.15088472698629,-0.342392854440019,-0.804473319631693,-1.59464408372094,-2.21462567662591,-1.84969689816727,-0.319132940845161,1.37834095225676,1.82238022589022,0.613639093256814,-1.10876048468403,-1.73859380181023,-0.715439096713216,1.07568295683282,2.24576519529728,2.11890799939709,1.13702199086625,0.25978430757184,0.0688015439862183,0.436660063521159,0.88465469976844,1.03195729963289,0.731336330206964,0.0732257307848103,-0.587058348864424,-0.800430102358794,-0.444722643260072,0.0686818666491909,0.178036047813804,-0.216801337009492,-0.654464364892673,-0.682977935299088,-0.415711890265001,-0.39156236696184,-0.911138970905607,-1.61459268626663,-1.75344814392422,-0.907894560738219,0.494930691964481,1.4152236927607,1.13000017145501,-0.0149699892978867,-0.910548057449728,-0.764466755866283,0.245693851535818,1.33567364843879,1.8642033505089,1.67554825062964,1.00660353663754,0.304888621094385,0.00992456239410485,0.244248400022076,0.673854856213551,0.796232114714877,0.407576234821511,-0.239765774830086,-0.703344974493937,-0.732256283533723,-0.437784030692237,-0.159371371113474,-0.164051624874079,-0.443487974935155,-0.801679426229203,-1.12249989001798,-1.4374961778064,-1.65283350227563,-1.40160648096701,-0.472411680564075,0.654375133767005,1.07090536271229,0.418630198194686,-0.608039727542417,-0.936570463336354,-0.211310765068347,0.937216759867492,1.63356676435017,1.55200549415417,0.9974419200479,0.483741129201289,0.351296374228007,0.587319718116306,0.850559346241294,0.761220514149111,0.265806352687409,-0.317921091897732,-0.623437799073757,-0.55383063178669,-0.30567277571441,-0.15011343423758,-0.208302452471489,-0.406336350480961,-0.595141108090678,-0.692057903950444,-0.757795012318837,-0.953414705736567,-1.31375348056925,-1.52245975298309,-1.11071789890336,-0.0650172288211904,0.901803996077147,0.964072307039163,0.0972417420262663,-0.80784849416636,-0.826717524456136,0.0905316164708597,1.1580933605956,1.62489767906267,1.44299737352082,1.03698355337719,0.68302974752682,0.39825521988432,0.254123946278052,0.370495521403467,0.606836116744886,0.61340165625759,0.24504653056843,-0.28131184161237,-0.617569594308282,-0.546588692429025,-0.145650245636421,0.191597775317137,0.0759086082013904,-0.417956563255936,-0.799522788470554,-0.781364777731828,-0.662721326774064,-0.914403595488662,-1.44942802229457,-1.54018287651586,-0.645496070816961,0.760171915112271,1.49025453204911,0.912237101223776,-0.320523550010043,-0.981878361920479,-0.514036097130774,0.631590135901822,1.63551654724137,1.96185734673495,1.53628762938708,0.704051496342179,0.0696155002477034,0.0687814452588978,0.54407897290757,0.872648791970432,0.597633356916081,-0.131122099750355,-0.744914465619246,-0.813374628299792,-0.435474905466801,-0.117730118935606,-0.221396828490202,-0.562968616791021,-0.713982579807415,-0.66179989007995,-0.86061484870789,-1.4680146866868,-1.8444722303075,-1.22402733067235,0.196084124358768,1.27890501435219,1.1668881854518,0.155553616101804,-0.73383480844654,-0.74607911839388,0.105363422511397,1.19324214201782,1.79071292990926,1.62729228995848,1.04294263679729,0.565131492364614,0.418579746163387,0.491295199363353,0.57711567475901,0.507774208094549,0.213374591431306,-0.187831358902784,-0.467745352763573,-0.551874621924379,-0.579057538882619,-0.639483488521938,-0.636771372433462,-0.519154545076221,-0.483676638039355,-0.788062284596546,-1.39031083679028,-1.84792462435028,-1.62287054327984,-0.595681616573779,0.652987914803078,1.20559853479822,0.652428002810494,-0.425977706293148,-0.972586121597538,-0.475892329165226,0.624243203611388,1.50065502300659,1.70321555655073,1.36021459744184,0.88699848181552,0.629691577205696,0.63231797742541,0.635669808705206,0.401936783295019,0.050346469828469,-0.0962750998933608,0.00764945698841767,0.0412384376179229,-0.229001725527669,-0.631675372909075,-0.846919522713379,-0.800572556082686,-0.661025743437549,-0.609702623995622,-0.781448686262632,-1.23541192911228,-1.71987766343344,-1.63292182444025,-0.6085429442403,0.830310627885967,1.54324559538936,0.907117334569925,-0.440716126317977,-1.17737339402127,-0.594519484761633,0.796990375537306,1.89885570260405,2.04556665748237,1.39565953116434,0.596288001593085,0.221171949204593,0.371607939462196,0.663830116842108,0.656475395305656,0.313692656435042,-0.0519817599190949,-0.240123592128222,-0.340618305834551,-0.443131179849008,-0.448472713349719,-0.301958092848721,-0.189136778363739,-0.305181154256653,-0.585119232857471,-0.854682489290587,-1.10013604613497,-1.35352070880693,-1.41415002456249,-0.970098205027447,-0.0505634994364891,0.806810337242598,0.966363042199664,0.317320486041123,-0.518398692176287,-0.695129385236036,0.0481714948163043,1.12374025917449,1.6872053003437,1.43511551020673,0.78880920874934,0.39433997307501,0.516940078161718,0.870970345019585,0.96894623932346,0.61630336345731,0.0594585732853611,-0.325619286373042,-0.41700904544097,-0.390134571583763,-0.440929523749717,-0.543999332211379,-0.518230719334397,-0.320286988299179,-0.219008974653315,-0.593638497299495,-1.47268822792485,-2.2591013848286,-2.08053967772008,-0.669622410599676,1.09177998813026,1.80050528158053,0.907246946533007,-0.654579344545503,-1.37622752067355,-0.643649772701871,0.822910010734864,1.87347812213063,1.98919799673785,1.44051176393918,0.769553436636208,0.369128810847651,0.364551806693515,0.598104133514345,0.720190144488093,0.471548008082788,-0.0443333591936345,-0.435503301340686,-0.452733955198092,-0.295418541010272,-0.344699020884088,-0.623535975960515,-0.752887018505049,-0.521510339185109,-0.279322157885929,-0.565388341676264,-1.4097529070067,-2.16358529031988,-2.06006282413909,-0.935931896484205,0.540266920533333,1.34876661101206,0.973625509276078,-0.109789529124514,-0.862240175669935,-0.64518655239995,0.297063497142631,1.25317214642488,1.72106629330766,1.64690044645269,1.25962505711213,0.843541953512984,0.576328509382566,0.466217313316524,0.420021828956429,0.343863227427075,0.179509114495112,-0.071081941301976,-0.315568650979182,-0.432193863415098,-0.402700866097782,-0.342908657435674,-0.372739245106826,-0.486184779371406,-0.578676066296796,-0.600818599902469,-0.677694884041203,-1.02814562780632,-1.64242203928637,-2.0175315639439,-1.47414050439704,-0.00532476632826221,1.35597249495873,1.42786140548773,0.19477336067272,-1.07286119943932,-1.12393789744472,0.0615118774644473,1.44537244316123,2.05984913471624,1.75199981560781,1.00120154637239,0.384938489192875,0.256167779442766,0.573370915523858,0.874522815573084,0.684963423850977,0.0884023854533485,-0.350806820332285,-0.307488755107645,-0.0616575068510695,-0.0625566675275091,-0.371683233799786,-0.656938511423952,-0.610130703298784,-0.27827173578419,-0.0239163098773002,-0.202887965773682,-0.846167959658381,-1.59052023302635,-1.91543951214784,-1.51630387076095,-0.531340601540084,0.519470287101441,1.03065148308976,0.728019275347726,-0.0509292762371412,-0.577185917766822,-0.369168537319044,0.417891065503079,1.2406936030333,1.6503192801697,1.51353151587588,0.995238237544048,0.470769014865834,0.312288296194923,0.559639719665893,0.807091934266025,0.588419947321044,-0.0573698556673678,-0.567117091814845,-0.523658896803357,-0.174806194248363,-0.0841451633498529,-0.397431554127659,-0.71158640216972,-0.646621457878437,-0.343675688776386,-0.329475120214919,-0.913741149778358,-1.71693194632996,-1.8936346728105,-1.00160590818061,0.395074853870666,1.20775968953132,0.914298894827468,0.00175271460816372,-0.628964272087749,-0.484333715715273,0.269328381522464,1.11326883005306,1.60568783796735,1.60741785531603,1.23957647379329,0.729023019165892,0.323795564444509,0.239399977906609,0.493292607698356,0.77336734445417,0.665842289362938,0.106975243611986,-0.5354415593937,-0.885173867359845,-0.887999902192567,-0.68940940583163,-0.418982417306161,-0.18954360867974,-0.145336390600489,-0.427347069879477,-1.09627506390932,-1.95691237535028,-2.41570983518683,-1.81528469674327,-0.190740570359021,1.44330460640543,1.8733001098329,0.838545749747256,-0.701811982981269,-1.45206959160239,-0.833262445992194,0.71730355363806,2.17271062057435,2.61400633338897,1.86053793585996,0.614042509911685,-0.160492722512265,-0.0887710885930823,0.424250266153226,0.749678861735151,0.595137195370926,0.100818007741756,-0.379403163077614,-0.569793682864015,-0.48895608574071,-0.394054042731353,-0.451721317140341,-0.532161295106461,-0.435178339568863,-0.251580531911031,-0.330371441109947,-0.863083285435888,-1.61094622734819,-2.05954996291072,-1.78520215218543,-0.764124923335475,0.513738595976281,1.2861724185738,1.07942651020286,0.124800639157155,-0.800918517505662,-0.961559775117413,-0.162902958055545,1.14186894019806,2.14698774317584,2.2379849621292,1.44653514080797,0.414938500302139,-0.144480881718294,-0.0172506801116913,0.40813305981991,0.561414031215131,0.242745213945705,-0.236170905665256,-0.462158335100645,-0.381607423979184,-0.256160347534589,-0.241951099047314,-0.213237746532859,-0.0495467504300131,0.09659040463465,-0.0071340613262829,-0.308943263176643,-0.527839502121683,-0.589511951505071,-0.784772677295908,-1.32447097669608,-1.83787930135489,-1.59916432040318,-0.412856528023539,0.9162325697914,1.30670512720328,0.566246385483753,-0.448596400405912,-0.816473017355185,-0.368717873632343,0.476674603117005,1.27660593348459,1.75966811246646,1.7551681491412,1.25737073405443,0.561831450976837,0.137498980452293,0.226119577686232,0.583483126012487,0.705523351205773,0.344695267383898,-0.24306056577207,-0.588633872955119,-0.49562191259567,-0.188366674696745,-0.00989992703698403,-0.0695817101223851,-0.23722705451547,-0.389823091212607,-0.526563405375711,-0.670728990629068,-0.827360307533206,-1.06472193487937,-1.43134995395016,-1.67388214374089,-1.28102638811498,-0.115912123844673,1.10879191684276,1.37221136806677,0.458579926777906,-0.706104684404512,-0.958308820803074,-0.0214500079954893,1.34259733205618,2.15455914234954,2.02933460700384,1.28066095246899,0.512434682787221,0.191443948278998,0.389731464738624,0.742391551233791,0.736228409821709,0.210255555402693,-0.43302558492527,-0.641318653838753,-0.352165125716806,-0.0743700630769024,-0.260715275776676,-0.753232030362507,-1.00719428106959,-0.788756173751444,-0.482083891131907,-0.658278806549461,-1.38336428430178,-2.01763520303775,-1.78663277644633,-0.593473288699987,0.777393840832767,1.31962293656904,0.709945637878518,-0.39326048568455,-0.938553992529435,-0.406931961802702,0.796892652752712,1.79535900871294,1.99490307094552,1.45759991962084,0.723443998911028,0.338685412812473,0.429478749074721,0.659267428800578,0.645400250451438,0.371129949072478,0.0941125437659285,-0.0543551486192192,-0.199745396860452,-0.468365117566675,-0.743597102853241,-0.757226223997555,-0.427543800909552,-0.0467277083428416,-0.0330875759663016,-0.498686158735903,-1.16670248441972,-1.69489997655449,-1.89957179120638,-1.63920127878894,-0.779708198799972,0.452439782538435,1.26694358200209,0.925919979202871,-0.305848932707395,-1.18709215682055,-0.746642785224101,0.688214958043127,1.91736965906271,2.12565971971105,1.48941677830544,0.718543256904956,0.323289812125463,0.333582758066367,0.48651558152476,0.530159299547613,0.380872500504283,0.094939476159028,-0.234077181328392,-0.522440687393725,-0.662657270910752,-0.53446347837603,-0.160196748005681,0.182228746496947,0.17147558804693,-0.181143953448753,-0.504058167682668,-0.474947776731355,-0.167168756819287,0.0248854571603014,-0.27347065422363,-1.08911665834664,-1.95327526922223,-2.11563430946069,-1.15903458963807,0.438175633283799,1.50014851234731,1.19284584116464,-0.0813496231676876,-1.02308540540052,-0.74386121251572,0.424339822111445,1.4478315483053,1.66750898365708,1.24128561466526,0.75122349444912,0.606961314366748,0.770857068419042,0.887804205655741,0.654234468210015,0.127396080668034,-0.323375305531624,-0.4029667375231,-0.208230566698193,-0.103863247424511,-0.259734914523861,-0.404125369450055,-0.194741413818777,0.211371583755737,0.262044314501339,-0.220691321345749,-0.72371388918458,-0.727976381218305,-0.413944036074717,-0.382670065616218,-0.865933532988457,-1.47733578083284,-1.62757189735986,-1.02702820343348,0.0676379818619514,0.962021824925993,1.03137507520127,0.291302756798777,-0.556680875021288,-0.705517284599291,0.0719233161003379,1.21217966816695,1.84679882011145,1.60956844910849,0.927109306672041,0.448904110329678,0.36640228245226,0.438186894019132,0.452897759486729,0.382649263160346,0.209633257931554,-0.079229004309974,-0.335665520417128,-0.358775348461696,-0.19923985367506,-0.123098775695995,-0.222174622825356,-0.301076174052071,-0.238212083688679,-0.200692804010541,-0.346540958739821,-0.575277828056742,-0.802820514203362,-1.19741687605298,-1.75839499140774,-1.89087296592769,-0.981428446900107,0.570876462185185,1.46349208609131,0.911801912503603,-0.38696370950654,-1.02272370727508,-0.39059226092421,0.853338592986773,1.69087350796688,1.7382802391764,1.33661607698721,0.955722256114698,0.721318283648455,0.49822660372464,0.261034415258774,0.178555389332243,0.286417448079808,0.296506595343247,-0.0457235040285229,-0.529965426387266,-0.690113503155433,-0.438698349349773,-0.208589222912754,-0.356749284106978,-0.661523700532127,-0.635708041597593,-0.249242342450884,-0.0787938542266376,-0.625190174105135,-1.60979577581453,-2.13510719352421,-1.58191743332566,-0.256057192904703,0.886543138461744,1.0927393120341,0.404866282492821,-0.462663374873017,-0.757022142291615,-0.255446495757083,0.66899206056295,1.42297283245468,1.62187608752645,1.2997529944252,0.827262539238929,0.575654792666675,0.594909890255824,0.653065106083417,0.554388724451071,0.301965770800763,-0.0052121397320153,-0.260311197896196,-0.343579785824885,-0.211181645538618,-0.02988761892788,-0.0736422137501437,-0.401172256191423,-0.728509948643427,-0.732379826917279,-0.468999146660997,-0.393713000265938,-0.871518685461968,-1.65710183254144,-1.97382813470025,-1.25307683929156,0.179253308875398,1.25173261465758,1.11071691047323,-0.00550034547251581,-0.935247229906824,-0.735681630281251,0.40899646962344,1.50093869970522,1.79909035511847,1.40613732918303,0.916673551960785,0.735444699433505,0.789617238835571,0.78153449121587,0.596202956718352,0.380210009558974,0.242298021690947,0.054826433282315,-0.3085744972977,-0.667858833967838,-0.695529675628237,-0.364819049886975,-0.0419640291701297,-0.0882442012918455,-0.511324270908249,-1.05325166498127,-1.47804560719256,-1.66746413184898,-1.52539121204141,-0.969381546144244,-0.103008296420889,0.67981934149317,0.910634566453634,0.453293807978982,-0.295897320386102,-0.648103389906217,-0.16959321837712,0.887022306135947,1.73628162496028,1.78536016200588,1.19563418223432,0.619970416316301,0.472455287100284,0.626787776664131,0.740668164349278,0.6332257575706,0.329138841183563,-0.0753988415316267,-0.481051972969952,-0.763026645631229,-0.778942305598572,-0.501401249030522,-0.157088163939971,-0.102090251254567,-0.470501908459833,-1.05781584589869,-1.59889380621992,-1.93709207392706,-1.83996884831012,-1.03292577542411,0.277379156754699,1.20302833513895,0.946012301449565,-0.237807330377568,-1.15779342004627,-0.884892190541363,0.337114622098856,1.47337857992181,1.80754490913815,1.4768189265761,1.03977327821775,0.823031634406035,0.755900206634994,0.636439962632126,0.40973093625586,0.2127171659214,0.184401304495212,0.245274533709939,0.144495968918226,-0.218411208649888,-0.614384518050896,-0.735216863741809,-0.56370834875935,-0.369567355901644,-0.36878691886983,-0.554817079600585,-0.890483403728486,-1.4148263366004,-1.9551441049387,-1.94998888200606,-0.976606063303778,0.510450736348334,1.364665254483,0.911581420850807,-0.277614839765237,-0.98955586360532,-0.600947332710751,0.481074775154299,1.44552267118054,1.82959539278737,1.65216100192243,1.1515487932196,0.628903740818384,0.375971071896982,0.470872548557206,0.657629766407253,0.595869811940458,0.215369221974569,-0.252754043345772,-0.515332674723755,-0.440501650601063,-0.163556701089288,-0.000548993509979005,-0.126484285158826,-0.345469342430417,-0.342520797051468,-0.151449235331983,-0.171018194065572,-0.667601847522052,-1.41200522879433,-1.8548485510939,-1.56865292700002,-0.565833191336874,0.641855760319121,1.30605018804507,0.973168851956245,-0.101076299177621,-1.06083558011053,-1.05884733107386,0.0517264602652953,1.50385933738039,2.21907922894558,1.78176161417575,0.771576056043997,0.101829087392861,0.154742770453177,0.590669178593317,0.835178036597227,0.620369699332973,0.0980391294655608,-0.393460542262991,-0.551217607440002,-0.260403714720376,0.228047661768382,0.381234989886699,-0.0643811424036479,-0.716134911053292,-0.975351453594873,-0.783585803836892,-0.633952254469799,-0.913077271315419,-1.45974658528753,-1.70574428524193,-1.16289276927764,0.0375985383316159,1.04067104387668,1.00025830233788,0.0188467779676721,-0.895552515255535,-0.860256847026566,0.104378737742911,1.26591588747158,1.86866982199184,1.66229963030048,1.00796390419023,0.509066444923647,0.440774876236062,0.573524549328909,0.557378952814966,0.310844220128277,-0.0143330892255814,-0.259120460759169,-0.361942834153961,-0.374521394822421,-0.424317006866437,-0.56223906482669,-0.659926468040971,-0.578191434620141,-0.418087871526743,-0.480678960434218,-0.957645251550664,-1.68514685056761,-2.15563279988202,-1.82596645635501,-0.638823133445374,0.693886943352662,1.1744864949135,0.483935138796678,-0.642633071973131,-1.13111726018632,-0.56761789343548,0.579192212784939,1.54372849263467,1.87609243910874,1.57136959208332,0.884178107154361,0.189317913582431,-0.0970632069791388,0.227210942997041,0.825911884277427,0.981484040315268,0.345342749136905,-0.570780860196841,-0.914732759211016,-0.456818374789561,0.210879668216014,0.417066469753986,0.0950330029763169,-0.332801564999673,-0.514167963052927,-0.45259286515578,-0.383773919920819,-0.544894908294875,-0.966758962954543,-1.31788159409757,-1.07076575694583,-0.0933682249018818,0.964078446605978,1.20508582212331,0.502003492278308,-0.311733070400108,-0.379842253606731,0.33440440987266,1.2516721220066,1.85923377158717,1.97437435597363,1.6444136837572,1.1121240563947,0.757686054200744,0.787690811403018,0.950271091085657,0.739437636197872,-0.0210155285397504,-0.885222551994548,-1.19890520867972,-0.857426698674241,-0.635811964855753,-1.55608036320056,-3.50845463860097,-4.50796961209148,-2.31226362909766,2.35389314515044,5.17562134289248,2.65232153275782,-3.2106418042104,-6.62071527247321,-4.47943350531994,0.707530665349665,4.43956863417323,4.75668456485158,2.78497507583706,0.585689352272676,-0.499673181332604,-0.248972510361607,0.670951496312935,1.33335688277266,1.29516188526466,0.792448003228628,0.276478865391696,-0.0309057951154449,-0.131312624737399,-0.0802375384811681,0.036919150327009,0.0822472133798629,-0.0557885499217832,-0.351019730229837,-0.631975456114846,-0.714536083861274,-0.575821292786521,-0.394068851415878,-0.377189591593793,-0.539984161508582,-0.691610307221808,-0.677175571049033,-0.613428236845591,-0.821975700504588,-1.42161167617383,-1.9463842310778,-1.60486505592775,-0.243426500150803,1.10213942265789,1.15002678369177,-0.0799876270751868,-1.19038404378691,-1.01685353175316,0.180527414453486,1.30047593550196,1.65938605298045,1.37265970123144,0.880311241964995,0.509584201786654,0.391702842238694,0.493812652554304,0.65318415209257,0.670291437825734,0.431114330108793,-0.00398363229582498,-0.381461728756623,-0.414831957724407,-0.105398100666988,0.169118817290913,0.0578931396995645,-0.344027322810462,-0.651793415410406,-0.661349573062788,-0.494140459040213,-0.423759289853789,-0.718663099689861,-1.40570045092303,-1.96717453868679,-1.61226622164152,-0.241503568669856,1.11227186864485,1.26980215325291,0.2396515239632,-0.796663894885405,-0.773432697930623,0.276827731194033,1.46367388857788,1.95908352661041,1.62870937493238,0.957324418559328,0.51303273561988,0.493960593784451,0.701183923942879,0.813451727995376,0.639900026066402,0.219900199749605,-0.210349422639969,-0.398989653592124,-0.312519303488595,-0.152220291434414,-0.106633348432993,-0.183573176930636,-0.309943091886448,-0.42855233123718,-0.435850609466147,-0.2539410095571,-0.102964372639362,-0.439943497860232,-1.34862336315862,-2.14604197162137,-1.93439549529267,-0.598710293163549,0.919682985941263,1.46101274858253,0.762582503987455,-0.322672940132348,-0.752361032295926,-0.298016317851223,0.500999809625189,1.12955623023941,1.46630146621053,1.49815323662126,1.16360382244055,0.591230539145525,0.154717943933325,0.10882718889378,0.310265680016051,0.397779511530636,0.186175350658807,-0.166779140505377,-0.368220437143441,-0.324540910306672,-0.209635902789631,-0.197658553749722,-0.245177042772049,-0.223740084500873,-0.16271311711191,-0.219512747082237,-0.470583100863453,-0.867629532826736,-1.31366782088435,-1.59654652116184,-1.36119316164591,-0.471997731930001,0.580154188066927,0.966269055435407,0.389254557208785,-0.506910740731481,-0.767114199398034,-0.0976136724405278,0.919176705890095,1.52961835184718,1.51733515916046,1.14831238954884,0.700847574870856,0.338727159788953,0.26236428818258,0.566948537679684,0.939404661183104,0.849324523298439,0.168534205385031,-0.610137720708472,-0.900419346074863,-0.64314778840192,-0.27710882028695,-0.176016387706626,-0.292610915275871,-0.386458637133437,-0.433413919266413,-0.660023895584996,-1.1927791303899,-1.76291695551608,-1.82397935461409,-1.04801648767708,0.223853430813282,1.10173546770149,0.90202556817935,-0.136301210343246,-0.98556216446642,-0.788474910164131,0.329244864770768,1.45037511060472,1.80710608911753,1.42782491289269,0.890239652438567,0.621826467257447,0.56587382869888,0.458854263205411,0.254778031545314,0.152748535522516,0.234528432394321,0.256877399341742,-0.0405701105384172,-0.517315537195121,-0.750406159820794,-0.572904545595534,-0.274998970829199,-0.203878806718661,-0.356157909494181,-0.497904687732091,-0.563407464554267,-0.749560567490674,-1.18616811247306,-1.6033368445188,-1.44770454707313,-0.463750052215356,0.819952889337231,1.39170510261706,0.746698255384202,-0.503297472060626,-1.18055931171962,-0.66281674094808,0.626212995695546,1.71621406453553,1.93082627556365,1.32444715303162,0.485821105844283,-0.0123124671299304,-0.00766397361199113,0.296262935465028,0.59221361706241,0.617046771140744,0.24559406508405,-0.334972054545573,-0.655856526799687,-0.424533275714193,0.0850801557699244,0.314664888156572,0.072261063569892,-0.300771732214558,-0.409507474780554,-0.2478191899943,-0.131863017114238,-0.375579489205865,-1.03778311167236,-1.75627322105073,-1.83145442457424,-0.84301888571226,0.657445640235536,1.42661271325331,0.808096244343092,-0.481676321129447,-1.12776177327046,-0.600048682396544,0.512669695996693,1.34771640803512,1.54429207224719,1.2463259340082,0.777733871204522,0.451865265540044,0.420896461393273,0.551913017001182,0.575963120236288,0.386641070013609,0.0730017765675992,-0.25293093677452,-0.465868854822984,-0.393461376860402,-0.0422667600703702,0.235582658875237,0.0865160453810053,-0.364063254317921,-0.621143461627485,-0.442318486518726,-0.175865830441364,-0.381613627467458,-1.16141295285605,-1.92729535146969,-1.86735236198534,-0.725160602614282,0.790825197627971,1.4800349180803,0.781742300059628,-0.556960724638777,-1.18377854407842,-0.530522471266562,0.72206668083825,1.53556906215265,1.5565285717849,1.18549424343853,0.897863560655927,0.77263517534347,0.643011110173962,0.438878588566785,0.236906823154454,0.106911479596742,0.0506504588752397,0.0255884991139069,-0.043056247594588,-0.196946692707198,-0.362502430419174,-0.425388715969721,-0.39178126019483,-0.37720579604832,-0.441388985186278,-0.553344098038713,-0.745612967537568,-1.14824609697142,-1.69883935118957,-1.89814077999025,-1.19897010150437,0.18400794557199,1.1669180492401,0.876311734082778,-0.296171025525513,-1.07920774536986,-0.703548424597681,0.4274776517822,1.39405488749191,1.6918959749873,1.43364153867631,0.989930404008331,0.661021960635218,0.537317463296512,0.513222116067261,0.46644469122892,0.3966549522367,0.305102880879938,0.077277075230078,-0.31311162915997,-0.60415263866112,-0.513117945838206,-0.16411318220851,0.00309923278897244,-0.213209778463708,-0.535405035165741,-0.630988611482856,-0.599702632218943,-0.828206345066239,-1.40092005053618,-1.84046266714046,-1.5333291770082,-0.423987916186478,0.75815299052041,1.09321426126839,0.38600428649714,-0.588115969922783,-0.844970516270213,-0.140867619892471,0.902108260823558,1.5140204195821,1.48232708109211,1.17548438179022,1.01653871735487,1.0269320882077,0.89986610949025,0.48672111650216,0.077093845549178,0.0367503370951156,0.256709826726047,0.264214240602802,-0.101699682293741,-0.475313143799542,-0.513372709257857,-0.311262205576808,-0.150583313388502,-0.15578293955408,-0.327868372746244,-0.635263692519191,-0.956570410117964,-1.15048132186332,-1.22178898136886,-1.20695506221813,-0.940012663249486,-0.254011173505588,0.560213381071435,0.864739669216533,0.413341166096562,-0.27836485781161,-0.483349885519306,0.00105562217972838,0.804955396791673,1.45585635166683,1.68547477050046,1.43094699081084,0.829311110210403,0.234830653641831,0.0310624898467607,0.296897822086744,0.691602962092884,0.728370641246611,0.21576738577261,-0.515180894452894,-0.869620032306601,-0.583757062165093,-0.0281913111142201,0.192837407918086,-0.110059241227556,-0.587754200193272,-0.835066380395267,-0.864631014751267,-1.02781890779435,-1.44860361879623,-1.65333156040183,-1.03750552084536,0.218766780294288,1.05459817881002,0.671995807002779,-0.442184545308114,-1.02700872378792,-0.470747531290373,0.651909715817922,1.40543844927381,1.46267403702531,1.16727152226119,0.92708239823062,0.790536728515249,0.605178038058126,0.38987996135859,0.342138338968492,0.479614267785052,0.492179307147995,0.106329622693092,-0.493579764352461,-0.794572260105456,-0.541327607050367,-0.0600773853728763,0.0980631423038949,-0.237336893037748,-0.712880226497238,-0.886649812267918,-0.724250518782503,-0.634330157558613,-0.979779562547519,-1.54154101352224,-1.62231285575711,-0.847798084480979,0.280752054877431,0.878966110136975,0.619312438592076,-0.0453597903147284,-0.448443944393746,-0.245281734746882,0.466684880334972,1.25906311209413,1.63661809848538,1.42228180316284,0.925663623532432,0.616489144203565,0.622790094457731,0.667032335013333,0.494612799410213,0.177742007641918,-0.0821969785671903,-0.249198599740703,-0.378160312775279,-0.404647791423736,-0.249961150850613,-0.0739095042970349,-0.162604033293948,-0.506987893887629,-0.714215390745419,-0.511290576496033,-0.213948706978007,-0.438751275509205,-1.29785906034454,-2.07868790051905,-1.89475276969932,-0.627459379527386,0.874407025229034,1.54220464628235,1.0117658762943,-0.126516652128832,-0.873003146172814,-0.611265162994513,0.467973999585193,1.57576382990837,1.98918589313809,1.62474665099474,0.985491656302222,0.559707070899008,0.389140869511124,0.275215779746968,0.188091668231572,0.221605568212545,0.257767009339264,0.0132563832635917,-0.523442583709198,-0.957947475557246,-0.915521009396788,-0.465178219983344,-0.0369682586125533,0.010743388512338,-0.303466047952907,-0.69772922326242,-1.01134570388555,-1.33368489680019,-1.63351862789044,-1.48336985978503,-0.536616491598758,0.750002951784001,1.32234704467213,0.679396128204481,-0.466576807234135,-0.941888279398373,-0.339104582911493,0.742320233218316,1.48599243963233,1.5657990309592,1.167105242063,0.672492705642632,0.409734203493643,0.474541062884136,0.663161519773726,0.680908201511474,0.449532486090334,0.0996671725028097,-0.24946856798944,-0.555436387112142,-0.699380816064169,-0.376538541740376,0.406245141802615,1.03152201151155,0.887601251809216,-0.955250417183436,-4.23587041686626,-3.68078860375426,3.75129325901741,8.13201055259887,0.747922081567543,-8.15001018218764,-6.28113083387366,0.84562664898262,2.88841761471356,0.240800313727142,-1.63264826050129,-0.90019400324978,0.707320691955779,1.22376261960391,0.454980495749167,-0.429579544692961,-0.495875756921344,0.204565263729292,1.04143861743851,1.51958640746267,1.54919800073212,1.23604397161801,0.725972317552532,0.25139912048712,0.0600047914401421,0.189366988739648,0.404609170110792,0.419279102952936,0.157726195047199,-0.200427011077095,-0.402954561502028,-0.348290346960541,-0.164039268564548,-0.0863920112590743,-0.236593054758341,-0.50176392506001,-0.67818143104614,-0.749152344418103,-0.929800290196644,-1.32949843656916,-1.62843975783164,-1.30768115870013,-0.312019813993754,0.684418984002946,0.889180726651817,0.232971361692377,-0.558962181575289,-0.712892930209257,-0.0825126418505356,0.867083926273506,1.53037855598695,1.58278686603348,1.13942562214428,0.615067273506811,0.354402080906578,0.359552099965839,0.412567156292282,0.392562509467766,0.34087375154596,0.254797212588001,0.0182653866158619,-0.378260232218662,-0.695476338385025,-0.668609293524429,-0.323093844700696,0.0370566490768777,0.138769611757006,-0.0288832091678836,-0.304827557582018,-0.629395893604273,-1.10378582739359,-1.67342558974716,-1.88891530255119,-1.27705458183535,-0.0107294392050671,1.03517625958244,1.07752714775729,0.207936273504141,-0.709035635057864,-0.862473005348903,-0.150196141019079,0.897419428925371,1.65871149757503,1.82964622801785,1.46274651742941,0.826048901993815,0.275273183962179,0.115467387376681,0.400665298155086,0.806636468658105,0.821015381934219,0.236820718965888,-0.548188957014,-0.898382684709865,-0.638566074405601,-0.217360575072342,-0.128634884864829,-0.368691025928611,-0.606718782753242,-0.729955043424445,-0.946414054041328,-1.33902682090065,-1.58504648395485,-1.27947101480173,-0.440132286885969,0.416864637972941,0.717717303238805,0.376187262866854,-0.112741354250574,-0.207799411114212,0.113389718724951,0.498330435590904,0.815274220760491,1.23490726305437,1.68900124536902,1.70641926632212,1.05359234669505,0.213921646368244,-0.103987309210858,0.228406191343239,0.679657442037406,0.658767570044579,0.058718926979771,-0.677228076888873,-0.96655409739278,-0.666984944773923,-0.227921958757509,-0.174827313699652,-0.552940751020862,-1.01203600161153,-1.29340156581607,-1.41518281110206,-1.42081384721679,-1.1671443045572,-0.51089717557467,0.324395882478728,0.76495914474963,0.455806800880148,-0.253687330209774,-0.598006071074486,-0.171037057316176,0.727403326920764,1.47194734308337,1.66620473507873,1.34930541250731,0.853285155032708,0.533317961310866,0.537432825807914,0.730059539064048,0.800521496205902,0.488616008781029,-0.163278306976534,-0.725600359386866,-0.726824514528928,-0.219468881586207,0.188797609667807,0.0281247622443855,-0.526066231398816,-0.990040383328477,-1.1447835662858,-1.09259960199551,-1.0164162285527,-1.0609670929685,-1.1907175661249,-1.05217095578297,-0.329296231871616,0.626231449118246,0.948181296060787,0.298459529747264,-0.588859034803516,-0.696303142157181,0.168530677595455,1.28000614023914,1.82973435169594,1.62998806931555,1.07799892045789,0.654834221042539,0.532921544362696,0.566447211877248,0.530917096518124,0.336601949445123,0.0662051578317477,-0.135318467272453,-0.197026396902713,-0.174196720537729,-0.198604932191973,-0.376660939752063,-0.673424176866017,-0.861986813753102,-0.700617235819319,-0.295709982272336,-0.184302668297368,-0.790557914315096,-1.76678698330759,-2.14238160091053,-1.30455646102981,0.276946980031266,1.42598285481849,1.33465720599372,0.263727346873066,-0.74467395174384,-0.82654745449114,-0.00521935305892365,1.00727181749514,1.58436184134915,1.62712104377209,1.34653913830142,0.91148735853108,0.43939699122985,0.130601080639103,0.149075345883641,0.365149247496625,0.421442213644777,0.141681536311962,-0.268021195900245,-0.504959810411518,-0.497143967509937,-0.34483100748886,-0.129560986725439,0.0388544891420621,-0.0579751207442787,-0.543568947226532,-1.21344456073706,-1.67479240525758,-1.68351060018142,-1.23892414394034,-0.459988354082589,0.423985589638839,0.989306608834677,0.802869242079036,-0.095467806852143,-0.981974029221639,-0.980055829533077,0.0908794164033819,1.49940867564812,2.2807930297622,2.04426502294204,1.13571031918639,0.225421430986677,-0.15136173250951,0.142959527792885,0.758584106517346,1.04591353874915,0.592943634742858,-0.306529437473172,-0.882859563551382,-0.724130348270923,-0.233174679941993,-0.0746904145440953,-0.34250276919705,-0.583856319537788,-0.542900968787882,-0.491217904890618,-0.778697830693815,-1.35026229953008,-1.78155040478268,-1.616983302453,-0.709690526690025,0.521944919191846,1.20609446133016,0.747513558397179,-0.420901998427662,-1.09909686202445,-0.525812238106658,0.83472992014751,1.83988058336468,1.83826523121065,1.13646743779453,0.465476577279287,0.265194806942442,0.474079980606399,0.747710385902649,0.778196033416962,0.521066221921609,0.168073440540713,-0.11114131057461,-0.31548126180393,-0.468738581959306,-0.488986111109134,-0.32288297733989,-0.108398182459101,-0.0666541634071663,-0.252348119400632,-0.509411420965461,-0.711513154433409,-0.970908514696445,-1.45219631117657,-1.9465467653085,-1.87466602031553,-0.940571327659472,0.351735625486858,1.08483790095939,0.809853579585932,-0.0744752766926615,-0.738208978513781,-0.607128628934805,0.259040259500102,1.29776058380818,1.90417217177047,1.82991600170271,1.2625663525404,0.641393741246434,0.357853690086409,0.460472683679689,0.608937107653597,0.444299108632826,0.0195938496604131,-0.274678319275984,-0.225415548345618,-0.0690377140572037,-0.153890021473729,-0.443398037466126,-0.546817023631441,-0.279128304908213,0.0227384761422111,-0.0699852941184725,-0.496064020887925,-0.850709656294684,-1.02974305750486,-1.32117940268703,-1.74231513462759,-1.69356206413177,-0.675888648888563,0.789894938291558,1.45659109940955,0.741927322018153,-0.509052973546751,-0.936642838045349,-0.132947052308432,1.10688638044063,1.82837271128742,1.79800536785179,1.35332507419553,0.83931282604046,0.451620282282884,0.354075191788976,0.567488365087441,0.776343565820463,0.56069961459049,-0.0771964936889794,-0.621715676509364,-0.624331487541026,-0.239848692471914,-0.00969902827949416,-0.205182103664016,-0.594982745061696,-0.81339264328304,-0.733890112419582,-0.500682894509689,-0.41543604373956,-0.755617293574498,-1.42401333596479,-1.78983853808242,-1.23471105800862,0.0344259849192187,1.02696933135955,0.991890554773848,0.186280929504939,-0.497400848538444,-0.447427909748948,0.2653043926768,1.16389982908057,1.76898115070752,1.8033287445037,1.29323284991829,0.603713435958318,0.236372833311005,0.402982539136153,0.781781177690422,0.813146738122396,0.289540995742182,-0.41345010088062,-0.739979357670313,-0.546334152060813,-0.236072620664639,-0.289242720487269,-0.699545246277855,-0.985055474700253,-0.812925650538305,-0.489918105522719,-0.651590608069121,-1.45127384660248,-2.20101890931075,-1.96055519397104,-0.555624281686486,1.04202454058077,1.54207990851327,0.649488610394907,-0.600401012768466,-0.936312336308835,-0.0981195171982218,1.13125620582398,1.87394875709316,1.87656264196212,1.43899914513851,0.947503963150432,0.582625450180749,0.364655624455796,0.290760679882241,0.3238658706777,0.334024728186193,0.192270191793036,-0.083077360363855,-0.356812909106825,-0.530707822560833,-0.595873123403275,-0.575281060785116,-0.504442557652983,-0.451294319787345,-0.501692772829832,-0.738020750527746,-1.19338192446275,-1.70205967105252,-1.8191718265253,-1.14448383487055,0.102557956315488,1.02132333954728,0.862225326970454,-0.0901702201340193,-0.754738023455229,-0.425069150774478,0.555239901786451,1.34345212227375,1.52741429208734,1.33348157466735,1.12918715740875,1.01845846213567,0.925131552591145,0.807184767663171,0.635862800918501,0.329037354150738,-0.102280886567273,-0.435979537245637,-0.456537385006482,-0.253718942398754,-0.152626020719324,-0.346826942797849,-0.692610608381657,-0.869323724558015,-0.713676640759453,-0.428889978639501,-0.453477313949131,-1.00918576090621,-1.72967740691843,-1.86469264889925,-1.00711362765723,0.377717884206593,1.26680847379325,1.02522035132144,0.0339974342947354,-0.683738559183118,-0.449977486240752,0.515769708024686,1.46100307020964,1.82642653543752,1.57225846086241,1.00618036972847,0.498792203937672,0.304634680648104,0.440217336743529,0.654438099305579,0.622380226303062,0.244185866896589,-0.275870701678952,-0.639139685666295,-0.696656600770439,-0.532619883907452,-0.370277708053514,-0.361696358265479,-0.46058249964837,-0.560628589556041,-0.710539091624703,-1.05497358564803,-1.54041277307225,-1.77522095184669,-1.30231277804727,-0.13157679215121,1.02077171418893,1.26167058349089,0.437827362124873,-0.626835817206077,-0.935176820032083,-0.227181626778128,0.96150640161346,1.89347511862273,2.12023135340578,1.63661948355736,0.850827125821263,0.316167592209172,0.2590627421856,0.414437945081954,0.449609051589698,0.377587262392125,0.34864755396192,0.2384394132767,-0.207093736444012,-0.867368373104709,-1.23004481386225,-0.974837124308508,-0.368907950161957,-0.00145768481828341,-0.265663128929932,-1.09389685142811,-1.98057392282569,-2.2304507852493,-1.46480371501269,-0.0825368517138265,0.931771266034786,0.89706170205471,0.110194172563373,-0.517942274444314,-0.420620443276238,0.223887026322819,0.935632406610644,1.43852029758544,1.66482689987002,1.55847504416091,1.11542548915269,0.556942442005817,0.260663438220606,0.407082236563829,0.736219788720723,0.761827385677974,0.263974566246806,-0.465603615123245,-0.879794911116805,-0.695035023720192,-0.204845856371666,-0.0194907385704429,-0.384479063956002,-0.871862661577574,-0.954367383535992,-0.763568960842338,-0.936282688293792,-1.64930754962631,-2.12926261543336,-1.45070852916613,0.212701938874083,1.49785676368505,1.24014392900945,-0.230316587906279,-1.40466804290112,-1.11325443141167,0.424929359886569,1.95554622325157,2.39507365971085,1.7018795354976,0.717220294739395,0.271190655150699,0.479478915683918,0.847866227558583,0.893918015775726,0.553758265247504,0.0870636299825955,-0.227861563183696,-0.291956204486896,-0.215534433919961,-0.202899219199027,-0.344789568281377,-0.518414489643276,-0.551283056871108,-0.44431415848466,-0.344919596426396,-0.388293750543029,-0.69520502095297,-1.34243031371742,-2.05575703401217,-2.1137012711025,-1.02711481692225,0.635030816372384,1.5354689844296,0.955819091434323,-0.344328633201819,-0.962083471954706,-0.383638590882681,0.687428032392658,1.4011905596647,1.60875939591029,1.54835975360101,1.27243596967233,0.786499412824609,0.406791269921289,0.470767508427721,0.771224436746028,0.715219822394916,0.108682165209832,-0.565881322046446,-0.772240406235146,-0.523559468265239,-0.212408550821689,-0.106949422105843,-0.218040581060433,-0.45390224389486,-0.667438747299295,-0.699513036625153,-0.628661032041463,-0.846772749866082,-1.54518634220334,-2.16157313922128,-1.76466155488734,-0.197331946097234,1.43983136567549,1.7765213148193,0.618636705773533,-0.821090354743724,-1.17105159804521,-0.18881651562006,1.23630962306801,2.09626782768991,2.06120438864817,1.43246655153307,0.672598731900764,0.137986018689161,0.0567611156643031,0.428983705696618,0.882719441985866,0.874489457834967,0.216258958305068,-0.672553564876293,-1.15145208119066,-0.967044394677557,-0.425441145118961,-0.0190028671230773,0.017046364394774,-0.226561861385035,-0.584888356056629,-1.01532661512895,-1.52059979654446,-1.9198780547617,-1.79909452593197,-0.88767328402766,0.431887848389344,1.24349474558489,0.980887257762213,0.0471946725086156,-0.647896341198693,-0.58976869584096,0.0872337545633942,0.987510152890422,1.75176877106876,2.05675733075096,1.69445894348046,0.840876521696135,0.089739464042747,-0.0354773853889401,0.366327967214723,0.678589929559023,0.456525064539956,-0.147478229897237,-0.650822289743414,-0.732790974579256,-0.441070829528571,-0.0996874357686602,-0.0381904214987872,-0.277140820377573,-0.508752869274102,-0.510360302650682,-0.495937023588312,-0.864536522047183,-1.59340993807676,-2.05699745284966,-1.59215047265928,-0.25939944066257,1.04464401521254,1.35885668975355,0.580973124250979,-0.457549433716444,-0.846102960823078,-0.381235658807205,0.512571317528645,1.35827004238463,1.8880258831288,1.92160993044456,1.37633643561192,0.504494601251401,-0.125154089953736,-0.113764556593679,0.334907047632787,0.616332487101127,0.365633653694762,-0.208151008555589,-0.623730170173288,-0.628875584634138,-0.345705795453002,-0.0431635661635232,0.0910101185137524,-0.00926820992504894,-0.297023467992642,-0.585737708339354,-0.65342328164364,-0.532911266085816,-0.622250792481578,-1.24423139133296,-2.01533750719667,-1.96702827623714,-0.642200883796543,1.07540214882141,1.68279886230338,0.685497029460492,-0.837451183042948,-1.40185653410309,-0.564500003036407,0.906975635013225,1.98027172257396,2.18359270045123,1.66785714195998,0.863618953461367,0.211526941841208,-0.000419702893124783,0.213110591798755,0.517876980238908,0.515556592208979,0.111837035713784,-0.380996514014379,-0.562885127979219,-0.357233871257113,-0.046424662279702,0.0813512268404809,0.00759341327543199,-0.127614830686922,-0.267730804193398,-0.426909609165472,-0.530239224584215,-0.506674047955151,-0.555148031366463,-1.01157503759321,-1.7514766106437,-1.99521198856637,-1.1172127326907,0.40604171589874,1.29191743811374,0.837917134341947,-0.296569328501788,-0.86906738792924,-0.365558442277611,0.67884941160943,1.46740861183786,1.70789801045025,1.57251572651462,1.23926885839393,0.776795865001909,0.363208691698741,0.250335496515083,0.422211633178604,0.531311791541914,0.291583638612555,-0.200427213345607,-0.604700153170775,-0.694302884860169,-0.513955210421632,-0.26629515462853,-0.135195908665423,-0.186128278320218,-0.329473437099476,-0.40493214144862,-0.440159112396425,-0.750562159327999,-1.49011357449887,-2.11179865171517,-1.724095622687,-0.225659361833517,1.26826235253031,1.50759016843206,0.45968644722126,-0.728420855913208,-0.997421484549112,-0.281886504214129,0.762855275328961,1.51482985891665,1.73410833185159,1.4766567029889,0.964123202970226,0.515139758429619,0.393832639124988,0.58053465457119,0.736268977822241,0.533711228945387,0.0334310346974033,-0.386422429315979,-0.472599762105849,-0.333429800910978,-0.229657327093973,-0.281023288891415,-0.428003784870428,-0.57170888583251,-0.691063715957985,-0.873534636025266,-1.22805348493093,-1.67728072930909,-1.84455460068535,-1.32810285336756,-0.222851518709329,0.756364443827159,0.903478359843122,0.269507270522262,-0.406777634663864,-0.494172374636144,0.0285013000903799,0.814211051073505,1.53824872342798,1.95078472406068,1.85750252607463,1.28611936996941,0.568634080393986,0.102966393730923,0.0444712733618345,0.257274476662289,0.472903817046479,0.438082712617247,0.0487651734086721,-0.505166213658186,-0.824145098738128,-0.706787547505034,-0.40322664258574,-0.295515931298049,-0.428301799453567,-0.569807197269198,-0.653796066850097,-0.891197609737012,-1.39588110347095,-1.86611178412945,-1.75953612383227,-0.845947965618749,0.398335717867874,1.09140944266992,0.793822992385905,-0.0385030468873645,-0.560876635333528,-0.340520306218369,0.444081923354484,1.33977077617148,1.93535874270583,2.0014978172009,1.55660771213456,0.853200800464393,0.263488686439191,0.0868947813133226,0.329450236869415,0.64304394708411,0.597234873373948,0.0879321477538546,-0.547686041968618,-0.846097557721824,-0.644043912475201,-0.208116302520497,0.0331406289728384,-0.123836779256643,-0.52551359247844,-0.872013750916698,-1.01431961321826,-1.05851306384059,-1.20719765507436,-1.44879155439375,-1.40602788945337,-0.697687450770762,0.433635466564578,1.12590545208941,0.79461943965429,-0.153576735364062,-0.749423282997954,-0.454339727131806,0.472593317751977,1.41003297883555,1.89132533240896,1.76486125088719,1.15565556682349,0.411572153212694,-0.0341791214783247,0.0607916687475112,0.50873289698779,0.78590000568106,0.517672280479761,-0.110064350053331,-0.566471873667827,-0.598514625541377,-0.439806034573557,-0.391404120054374,-0.447310519164341,-0.428960907119995,-0.309661162685787,-0.307889851385986,-0.724262313757779,-1.60081460843627,-2.38303898966242,-2.15174164727939,-0.633436233332617,1.12213652096906,1.63368658453776,0.637397697766434,-0.635095845142936,-0.903141020572922,-0.0682444885277422,1.08308347014454,1.83153408683895,1.92572943546566,1.49247423066495,0.911729695351514,0.58761445300123,0.607133701090772,0.693404318198884,0.566568747233362,0.238486015287578,-0.102092432814239,-0.353615127150698,-0.541227951616829,-0.689249856907131,-0.776910726424527,-0.7781215317229,-0.676084278793248,-0.515689928420357,-0.509855184893386,-0.946212819761749,-1.77691058262606,-2.35142463324362,-1.8708813214268,-0.311458828779108,1.26635862995393,1.62571592366522,0.61294715133511,-0.668889233964324,-0.980823690368216,-0.0802123247358869,1.27178400005029,2.1717013929682,2.27847343059194,1.8253998661863,1.20980480094685,0.693775671879546,0.413045933972685,0.433259966195042,0.637668793091149,0.69706082299158,0.372320835284399,-0.193717179051582,-0.645012212010669,-0.810822868327343,-0.786348948156281,-0.695264745280122,-0.56245754887945,-0.4368487955723,-0.512322885742538,-1.00713837385147,-1.83856860498026,-2.44700744253685,-2.14550884168311,-0.822627792676635,0.741812602055947,1.43553314096124,0.821081552623394,-0.412116796090316,-1.08339510511312,-0.606472421170097,0.617202971776924,1.74048092069195,2.16039881154177,1.78540170657407,0.996039862694295,0.391966133877895,0.301728526475601,0.476812039461695,0.434994430955098,0.0658859176235633,-0.313344660307677,-0.456946588158568,-0.46886878733305,-0.525426750077032,-0.567298070993665,-0.43821552835696,-0.188797578817786,-0.0298233689720498,-0.0403557475263235,-0.0424917816208194,0.247601610143354,0.683823103670157,0.396891417566251,-0.991298809013801,-2.22505192069418
