1.11788246706707,-0.151404222869938,-0.744396023833712,-0.793033374732604,-0.628014121446321,-0.422430854233045,-0.280272433145361,-0.282748216834349,-0.425404723093722,-0.570687150006975,-0.496996871917992,-0.0575214794629662,0.63925869410703,1.20309131488904,1.21493367604111,0.599014309862469,-0.26714537720578,-0.860336814564047,-0.921480360288368,-0.554274592571721,-0.00348432146502942,0.560758536034725,1.05889061664525,1.42037144316068,1.55189407426437,1.37574879812835,0.897914265313269,0.246888942630579,-0.387360807816528,-0.883081950070294,-1.23651200971191,-1.48477733797943,-1.63728156441401,-1.691771485464,-1.6337749862271,-1.38018517294132,-0.818718714282754,-0.00496073287394215,0.723011406183701,0.952753382441638,0.568596899558831,-0.12247314160697,-0.6462082212336,-0.717244667484454,-0.375237734712435,0.141938383847649,0.616995126278857,0.980251355026384,1.26837706562412,1.49130187581185,1.5683051415425,1.4010360889446,0.981867637549565,0.409360298094109,-0.186888393800475,-0.714194495915109,-1.12285095935703,-1.38713101158916,-1.50994593806295,-1.52588782707333,-1.44950142083972,-1.21271349155951,-0.711162349171141,0.0309526205471099,0.752701326873447,1.08265800589578,0.839036071788495,0.210202195535459,-0.393703332435874,-0.666495745477752,-0.566252939282118,-0.20301453294692,0.325212436639231,0.940083882206606,1.49980954639317,1.81402702089985,1.77521962390797,1.44169732817843,0.97575478291381,0.528667699321896,0.184135201227039,-0.0479647932866193,-0.221322853688299,-0.404859227886654,-0.61473568750446,-0.81311327697553,-0.979526264599599,-1.14314967118946,-1.32265792116511,-1.46142386577634,-1.44421798011289,-1.16961039404212,-0.61596936584192,0.107780186106779,0.737499081229406,0.943542625568921,0.576217429539341,-0.132045947908801,-0.692739989645915,-0.759499492272631,-0.378837018769369,0.158820797747433,0.635470079444757,1.02261112939509,1.35454772490875,1.59070762672179,1.62873717341733,1.4138053710806,1.0063915481421,0.543505959662368,0.141855139603996,-0.151359438354331,-0.318316397043713,-0.328296658769927,-0.182896034408355,0.016822971284251,0.110168176732112,0.00251482924487658,-0.271959939595031,-0.613892157184118,-0.95671819080189,-1.2862245686724,-1.57998396413284,-1.76021012028773,-1.71726726228592,-1.36322752017145,-0.685030065320242,0.173344767611802,0.866363678328482,1.01210272755443,0.523874349157383,-0.248311240301554,-0.783991797720592,-0.800093676252838,-0.38444973977278,0.198259185828053,0.742376702405678,1.16637703846469,1.45350076499721,1.59838431133556,1.59900908483299,1.46185531069448,1.19843240035031,0.827413587108311,0.40125680555553,0.0279124574346265,-0.172231232564977,-0.161107495565367,-0.0280344907875848,0.0696521221029534,0.00865584471900348,-0.235307424435162,-0.583302467320675,-0.910116859624278,-1.13568185046414,-1.27104552754963,-1.36749349341826,-1.42348123829666,-1.34137075089694,-0.981203297571157,-0.308274209337061,0.461539554319391,0.91280734963559,0.746073380980416,0.0879727236086551,-0.571441141113378,-0.792511714229995,-0.514984029771163,0.0141118596787236,0.546889141777834,1.00063789506063,1.37445959678447,1.62060801591274,1.65541051705691,1.46172542057938,1.12188894183797,0.734857312003532,0.338430327344607,-0.0516642729100669,-0.363469848666679,-0.515204989125935,-0.552770981741956,-0.650550859786681,-0.915763426639233,-1.2536567977662,-1.4923779174692,-1.57057427876706,-1.49160277414495,-1.15637537618608,-0.442260259001548,0.491708124613137,1.14387960148741,1.07253708302869,0.344547266144174,-0.49209314304703,-0.878844239270614,-0.66232279044005,-0.0965545712116395,0.466210492326648,0.856063381483745,1.12620217108956,1.3938282253498,1.66201361512265,1.78463301030964,1.59893387616681,1.08984900691375,0.417649535933122,-0.210555265937907,-0.682053077674651,-1.0059143743607,-1.24355254953869,-1.43444887416275,-1.57048982921811,-1.61092697814737,-1.49715654075167,-1.15125745977947,-0.52053006531765,0.287677727214846,0.928209070764889,1.0121369517917,0.472626531762514,-0.309492177510369,-0.807936108982887,-0.758955289872585,-0.267148738044307,0.395112498228006,1.0029005768451,1.43745852092825,1.65312363110391,1.65353494924617,1.48218356041649,1.19174106515587,0.801132265783162,0.296257330132073,-0.303573576507591,-0.891573094985755,-1.32657216693426,-1.5517136002439,-1.63070658763992,-1.64489030406539,-1.56262336752481,-1.23498191348352,-0.563604603926652,0.291595915990487,0.911582817139874,0.925275659831769,0.364582629118644,-0.325056025100497,-0.658091383994721,-0.480731266264982,0.00723302837960736,0.518626135379199,0.911171699104951,1.19954297826697,1.43150869180339,1.59025964064293,1.58908344302197,1.34767117489264,0.89532493671085,0.389203632043007,-0.0140097433903828,-0.303701167933175,-0.588492670717449,-0.933163361519851,-1.28660397280571,-1.57296391082439,-1.76926707888736,-1.84486737738411,-1.67541863169447,-1.10407645132778,-0.152733531976695,0.82323089674808,1.28659883647598,0.955467090577955,0.111251777647182,-0.610887756976255,-0.770175735677513,-0.418479853953749,0.113870343225297,0.594061079148882,0.990566435105844,1.3197454970373,1.53697388510606,1.58871702381406,1.48155989447594,1.25616323447853,0.931554996589864,0.517587506276707,0.0757825657258641,-0.273906785962156,-0.445987688819633,-0.491122695551084,-0.566535140231518,-0.777815402573864,-1.076492557693,-1.34182427844948,-1.52381168391563,-1.6460946988954,-1.6800119968076,-1.48598878765196,-0.936901605970017,-0.119200252745441,0.614157120708741,0.863902401005697,0.522463338184028,-0.10854250554959,-0.569178241610299,-0.60699607809581,-0.289392510380455,0.181629958098533,0.670181504848634,1.11784075189321,1.45988575927736,1.62172022562362,1.58280877989912,1.38100941305002,1.05829228057135,0.66138769112986,0.290943417506161,0.0712875422871622,0.0400277249632145,0.108157869244557,0.142057604776344,0.0579103328501138,-0.147699588973189,-0.409952469097181,-0.638643430403174,-0.790175622653629,-0.907729447184917,-1.07153476799054,-1.30424162094136,-1.52918518197295,-1.60905038180391,-1.40883667039092,-0.851959936790562,-0.0127143759141154,0.787850849117022,1.08809508388822,0.665724986668536,-0.174437780241155,-0.816445091928039,-0.872565848412766,-0.448293623343528,0.1029697406414,0.572010505536921,0.995667873235691,1.44664251055401,1.83038051072852,1.93194282716011,1.62923899002114,1.02231628329832,0.366314686664137,-0.0987004025563324,-0.276207245012464,-0.232534386126934,-0.129437566148825,-0.126880842248636,-0.30089173530755,-0.614350899323051,-0.964151982069913,-1.26520013927774,-1.48704695459528,-1.60854686661605,-1.54466694220795,-1.15091507244295,-0.375511652438609,0.549070125002314,1.14934825978471,1.07573598063301,0.441699369331669,-0.265959431881292,-0.615318254253087,-0.522319172350649,-0.160581196788362,0.29362490404002,0.767301275006955,1.22332055415465,1.59912379580936,1.82041641701983,1.81663861836146,1.53417678003024,1.00776778677752,0.413160035109684,-0.0415309633030237,-0.305461705276326,-0.507986818184046,-0.778502443617555,-1.10587421018614,-1.39569032483564,-1.59347814297309,-1.68720086127056,-1.61434379150777,-1.24550241313993,-0.524264067331321,0.35824263215681,0.976124833064303,0.956275492734781,0.322950827496716,-0.464854523417535,-0.872518647472827,-0.699222998236281,-0.142387962792201,0.473082252270781,0.96004099353914,1.3002415662094,1.52251106925598,1.61696518151791,1.55312802067582,1.33849359036593,1.03451364974147,0.713806457499928,0.41165944702657,0.121846940733781,-0.172530777324568,-0.473797351345017,-0.76931485383596,-1.04674484176569,-1.30572834617177,-1.55038009735074,-1.76437639433286,-1.889837836111,-1.82816113862628,-1.47391663776432,-0.802306810833827,0.0144458029833949,0.601057004253948,0.607129542591105,0.031753017840294,-0.702766568722657,-1.07197217916464,-0.862111331718217,-0.260516586602031,0.400734711467665,0.915254750178943,1.25729658120017,1.48300584634952,1.62383491647679,1.64499761852795,1.48555321323111,1.14219324897585,0.707124134572524,0.313567211772576,0.0522364639552637,-0.0562494276045528,-0.0409389238870854,0.0344958611455804,0.090967319921594,0.0871158980735001,0.0576765561385528,0.0684118360992155,0.125013289754412,0.152144576524994,0.0807011778330927,-0.0616209458568336,-0.171628958265824,-0.175536696515942,-0.0918608653062751,0.00315646514622416,0.0459642198621208,0.0152208402437786,-0.084980918553221,-0.243611713416253,-0.444148920931718,-0.676376585728508,-0.961198760245638,-1.3294673757212,-1.73994828169243,-2.04173688917047,-2.05686026998701,-1.68776436991819,-0.944951059754759,0.0383921354673566,0.947959218110194,1.35009828497419,1.00046005155206,0.133919041762706,-0.660314094695686,-0.91076265244917,-0.577765134290209,0.0697447946160739,0.758642073049874,1.34215214916502,1.74678675585638,1.92936154665632,1.89386738354323,1.68196357980096,1.33378042225313,0.891845144449932,0.431945762351072,0.0436257620708364,-0.219367996215604,-0.336449453208137,-0.288762589459124,-0.0891608499193921,0.160317900712308,0.307980574351425,0.275520471254835,0.105904690519998,-0.123432112943912,-0.394808749639407,-0.730587366024346,-1.10592565106306,-1.42715262782141,-1.6095175457041,-1.64113421615384,-1.52991466732105,-1.21061601917446,-0.59622923489549,0.217205784121447,0.858459214269629,0.924361766602194,0.373342245122226,-0.376992259971066,-0.799745302665158,-0.684569892185249,-0.201001280759614,0.371099477653216,0.86842754267722,1.24536534366879,1.4949716364341,1.62049977996843,1.61613685278504,1.44388660463784,1.07968066491946,0.599531637518178,0.170280257900959,-0.0755102061917063,-0.141999479751058,-0.145416496799743,-0.208054404442346,-0.383557601946356,-0.658069000986868,-0.97907808004716,-1.27346233655622,-1.47823561465673,-1.57147110797927,-1.53259085770132,-1.27067724370659,-0.68544078840104,0.131361097297432,0.817536917860469,0.977707491043915,0.538408296500915,-0.156912607526228,-0.611152662024548,-0.531422308845674,0.0109395708895853,0.689120715763046,1.18298440968684,1.39612168919175,1.45392751805088,1.5054979620167,1.56062240359448,1.52156474871426,1.31473524895292,0.957732664133937,0.534637757353676,0.135746035653737,-0.196656441066291,-0.480372416157453,-0.751785164390077,-1.02274185427427,-1.28612179334857,-1.54278456970177,-1.79096884234851,-1.97322602620762,-1.9442431827875,-1.5409588877004,-0.758124027978468,0.121909098623841,0.64547556034218,0.534600020869381,-0.0483874361203188,-0.615987066378112,-0.758725650064298,-0.432909775227209,0.114226217771552,0.621556266589044,0.984628025294282,1.22285107841122,1.37290567033388,1.4390420686075,1.40937226591681,1.28397953380494,1.08163686426875,0.827041735687542,0.53612034457403,0.216737372500835,-0.119670331281961,-0.461735719957422,-0.814368065173811,-1.18242594787724,-1.52267436107259,-1.7459332861706,-1.79473910969384,-1.68086702699967,-1.40748435324521,-0.913019044837656,-0.193374590376278,0.525272488319495,0.85854851398676,0.60059256155674,-0.0388781950484782,-0.594871119813126,-0.735817943116162,-0.465077608344313,0.0104261624412613,0.515556163058539,0.990962386557761,1.41060522461578,1.6936278244416,1.7364405808768,1.51979986037584,1.14090893245795,0.728544483674633,0.36512896351526,0.095044005074665,-0.0650910064227404,-0.169476356426462,-0.335882554978148,-0.629597278113042,-0.979886414981809,-1.25677207331868,-1.40130164482588,-1.42309775060465,-1.28340133836233,-0.867404694721808,-0.144606761688792,0.659333528728966,1.13870585783272,1.02675280566756,0.440500266557878,-0.211817572172218,-0.55434193500272,-0.47314291010562,-0.0875619371319061,0.424060027757517,0.946134912286016,1.41248509066458,1.7350608017923,1.80517169830291,1.58614660887592,1.17347581564472,0.727265747328308,0.349051830426177,0.0413393786509297,-0.229141337175302,-0.468513814034469,-0.669586032825214,-0.856117769094823,-1.07039958882144,-1.31365158188699,-1.52634405784636,-1.62351397624239,-1.51486539835629,-1.11382527996712,-0.426130210424772,0.324406623522117,0.74884082848426,0.588068928740479,-0.0327249299353374,-0.6858281714872,-0.973460007913682,-0.778213175766917,-0.260380119354873,0.311203831289374,0.743784562468651,1.01623621787815,1.22927663613755,1.45296896971131,1.62495424396267,1.61285946987201,1.3686048417783,0.994231573570723,0.644892902196608,0.38490850973302,0.157785364448349,-0.119136662024861,-0.468547795950251,-0.856268391877961,-1.22247482077222,-1.48540650324336,-1.57104745084689,-1.48596431124339,-1.31401785322353,-1.09360035943061,-0.766693373060383,-0.337748279726586,-0.0219383750248766,-0.0890765083864354,-0.53764399908161,-1.03232303200996,-1.21120234154932,-0.987500615833851,-0.530277751710702,-0.0447882033444627,0.370010064666192,0.716679346327325,1.02845211395007,1.29199874362103,1.41831127599352,1.3106800979548,0.971633379691819,0.525970176633641,0.139819500343293,-0.0747143999580686,-0.103651276177356,-0.0163233875796108,0.0992260655582132,0.204765303366089,0.310341846249657,0.406771838837414,0.437779217653994,0.368133381811022,0.250180192732843,0.167823939488454,0.109546939211727,-0.0500300189342755,-0.407163272188984,-0.893935216271841,-1.31992257824032,-1.53011676400631,-1.47973500397177,-1.16800511217558,-0.590546295574195,0.162322202707798,0.797628697357654,0.944173994658676,0.480111156370676,-0.283453852468618,-0.812200345727618,-0.768389767671611,-0.229865388021652,0.464031614765286,1.02686099437243,1.38175954963391,1.57207871030346,1.6118522795319,1.47315197080417,1.17334124517462,0.79135768804148,0.392996066065744,0.00508248860121451,-0.323575131879377,-0.500088422474531,-0.461428626171446,-0.238647335793691,0.0675694216772462,0.339366574808963,0.457247798537983,0.319527639550768,-0.0852958716362571,-0.618958760723009,-1.05832664718112,-1.26009468471737,-1.25111724651279,-1.14385678564991,-0.988528118106403,-0.726390905080042,-0.273534498416583,0.341846507462825,0.896710001557105,1.06342778757034,0.673143732820653,-0.0829612425954028,-0.763101736889847,-1.00905939112962,-0.763677964149713,-0.205759158872174,0.436432478153161,0.990891163182404,1.35586631193805,1.50182626826264,1.47150769440124,1.34111148650846,1.15444102924902,0.900168372511407,0.571705899634135,0.235354151999057,-0.00616277813141751,-0.128150551828447,-0.220410492112754,-0.387825610992238,-0.645017626908416,-0.933070552462405,-1.21205365468536,-1.4865742132332,-1.72199835060964,-1.77626722617918,-1.48729207611137,-0.865175985144398,-0.171612735369742,0.235954372897215,0.167538416721435,-0.260943781337017,-0.71806512428988,-0.886334124254103,-0.654113527683361,-0.149813232672196,0.381811004427988,0.763014778337432,0.984844921914973,1.14135022567662,1.27341853059428,1.30772542167787,1.15623599954583,0.835079559212492,0.459227052364573,0.144711187304798,-0.0659360081888223,-0.207050936645682,-0.342559650768318,-0.506479864219788,-0.679239608736188,-0.824807142255257,-0.94272138785265,-1.05804783028626,-1.14310353607305,-1.06412076902419,-0.656604762612314,0.0832945359362142,0.868205419717907,1.25308255973437,0.994884068248546,0.297065907579374,-0.343453927695271,-0.539910905571583,-0.268000763137703,0.214313674574474,0.621129755810644,0.82987144755203,0.898210408441923,0.941880466771922,0.999786539589962,1.00242221969535,0.854796659608737,0.544844033703039,0.175790636636506,-0.107034853064991,-0.229963177599572,-0.242163192687304,-0.259145842875693,-0.359088212466025,-0.536818989366676,-0.747882161011505,-0.968181245271731,-1.18987374115329,-1.37426135499253,-1.4384105115459,-1.29050119802542,-0.873029669242871,-0.213475281251759,0.508134345817312,0.968426012459718,0.895055484336109,0.331386096464764,-0.329213678991257,-0.641584236333522,-0.450414199040895,0.0639689417448385,0.616650867920735,1.04115494065353,1.32927006482183,1.53569297600207,1.66863420943225,1.6550617865842,1.40965254207132,0.946676066187926,0.415878016792002,0.00748423267059122,-0.186417693133034,-0.21490560657183,-0.193967312152595,-0.223797130046221,-0.368885288971636,-0.656223630537575,-1.0515382404354,-1.45702141523686,-1.76299758133898,-1.89719864957775,-1.80514391103238,-1.40296950961102,-0.632571324084433,0.356320837002105,1.12103535986587,1.18340154307366,0.478008682803381,-0.501841065676528,-1.08303828430159,-0.945287860786968,-0.28816216677743,0.45455899275431,1.00030143620435,1.3401938027153,1.56852487602195,1.68818075033658,1.6189664231407,1.33559869864273,0.920065105418263,0.488361138356905,0.121365228118277,-0.139840481513369,-0.290704455944918,-0.37830136271482,-0.48878292127088,-0.686839033544243,-0.960692779880406,-1.23456958622994,-1.43527942439355,-1.52739692988233,-1.46917295333499,-1.17031656265018,-0.572199423350308,0.190515390667421,0.768024163786154,0.840093881440152,0.417873836560809,-0.147607742072296,-0.477245763920852,-0.437613600325224,-0.120152880949024,0.329103394655311,0.790285138490284,1.16211526005857,1.37909236014327,1.44414707124276,1.40160736496201,1.27152116719646,1.03746048422952,0.704702097402239,0.342231968622664,0.044640894857937,-0.142346305519829,-0.250577399284855,-0.352552866936847,-0.500678359952349,-0.689128211537367,-0.864752941922614,-0.985562690759462,-1.07808585129762,-1.22022860590758,-1.4362437861806,-1.5982374388745,-1.46401115369383,-0.878668973445613,0.00915302935327117,0.752108035272592,0.912167397116901,0.436475276319165,-0.271239436826867,-0.685400318619332,-0.581604687359198,-0.140825037947031,0.320803987760389,0.660602651254706,0.937671372803081,1.2193304098473,1.4585040391015,1.55631969204079,1.46177313432069,1.18458115749412,0.770644688366085,0.308237269413372,-0.0682270669094932,-0.233174524190339,-0.167606855629729,-0.0100501550986344,0.0278801134523073,-0.159137178388373,-0.485123692200793,-0.791946269897634,-1.0184213094653,-1.20758620793745,-1.38581426895414,-1.50086791321516,-1.46162843027522,-1.18318274562983,-0.625792895548851,0.114055546986723,0.744460068129818,0.923007936474771,0.55027378035952,-0.0997500431261867,-0.584636244683452,-0.628415415588408,-0.266836967103877,0.2736865941932,0.786230857937464,1.18539834403498,1.46123688936854,1.59579458009574,1.55488515347811,1.34066664714012,1.0120771137905,0.646005591613257,0.296744351219404,-0.00944172223084476,-0.264266754243049,-0.469985574752418,-0.633514328345958,-0.767667710148061,-0.899921699011325,-1.06738449787824,-1.28323564798869,-1.49152243461976,-1.54885608469286,-1.27811384432225,-0.612782165400523,0.250835537740194,0.88097817774259,0.90547640053464,0.348945262337961,-0.35320749309117,-0.713243671964591,-0.558208654336898,-0.0698684342823087,0.452194851740021,0.826187807951484,1.05043465114258,1.21292087065359,1.36128187816829,1.44557516239635,1.3731542577723,1.10998659438429,0.72297515914654,0.32480814544174,-0.0135131545746598,-0.287028264937792,-0.507898615887162,-0.672351141735611,-0.801025419007356,-0.978378872182455,-1.28391947053998,-1.65675300212046,-1.86828214277422,-1.67834509073865,-1.03594175442458,-0.150146711737504,0.603268349616396,0.883454789702841,0.605082604210413,0.0206000428887956,-0.452401130926793,-0.537413367065983,-0.260600422521036,0.156690549798718,0.526881820772106,0.815921503636864,1.07766078996726,1.32666632438411,1.50279577440433,1.53363935238308,1.38997680811646,1.08573253689505,0.67161355162051,0.247979744109248,-0.0608280645939512,-0.194270691685347,-0.212066219938169,-0.237892817314506,-0.351960020777175,-0.549504550852563,-0.787285866975849,-1.04197072955616,-1.31053640401807,-1.56582944242458,-1.73066628311493,-1.69212042041824,-1.34097627567839,-0.654779514024639,0.188728877246951,0.811354275997719,0.865710146465704,0.343449366129179,-0.366360451917974,-0.77456721752909,-0.667542308487962,-0.201585556283066,0.326567347727117,0.74615272022746,1.06131431275524,1.32008888270309,1.50331673724279,1.53362588277609,1.35333762725998,0.988596566312368,0.557309117031939,0.211743104943956,0.0441775361753105,0.0272829536815773,0.0504218394490957,0.0273390007828833,-0.0310360369516286,-0.0610246992446393,-0.0596607698504059,-0.121319387542687,-0.335337619985839,-0.672565403499822,-1.01395514931941,-1.27225219413353,-1.43128229697074,-1.46856077910306,-1.30022981566427,-0.846542961602195,-0.163393063662742,0.49759181777554,0.808555175627529,0.616743260185768,0.0946829932901715,-0.392385445510832,-0.574418081210415,-0.421109747580728,-0.0485836583497427,0.427890699635815,0.923823106125951,1.3401421747088,1.5723914922032,1.5858848808273,1.44492378121928,1.23416522090977,0.969040901071733,0.622978185777423,0.22921594414887,-0.103200618146976,-0.290201866372486,-0.350347318388447,-0.372495512763983,-0.443748701169338,-0.612768393784824,-0.87188674541705,-1.15012028598769,-1.35607393909308,-1.43866443012468,-1.36967556203245,-1.0815688544719,-0.523881426131417,0.165860459009007,0.63818952057037,0.5977582987565,0.102652868781628,-0.457727647911152,-0.695131340396947,-0.513497587246472,-0.0958883607813296,0.327965076112214,0.664595810521671,0.94557060354577,1.20166939938942,1.38254837016726,1.38936268879724,1.1641247443985,0.748615132582306,0.272980175316731,-0.12082773282056,-0.37808289352364,-0.564328923417958,-0.776810203280484,-1.02569090717822,-1.2414394262527,-1.39354205372642,-1.52673740606898,-1.64000611096839,-1.59441634601841,-1.22469377952599,-0.546774048854607,0.1870132300766,0.653907208497851,0.683418237455992,0.353038896575266,-0.0787603760941378,-0.32320149688681,-0.212554418140114,0.211495545196515,0.740714747386952,1.17152332179851,1.45168823803643,1.64669210532185,1.78869983176465,1.81367672007926,1.65107691349054,1.32749127031047,0.953268794536491,0.621903774744163,0.342853668004473,0.0656601012702247,-0.254139113558875,-0.616066450824108,-0.977986684243161,-1.28740565102,-1.5233777553998,-1.71075746273435,-1.87098380068204,-1.94400364997404,-1.78768431125586,-1.31870048785713,-0.681903206943713,-0.210186265988586,-0.119873922409584,-0.255003988235089,-0.220988681174935,0.212154503438373,0.899861774210169,1.51376184313189,1.86166279238931,1.9870100665479,2.02419567953141,2.04380560742427,2.0425657980865,2.00017305206012,1.87128376950128,1.55128427377548,0.947051580300124,0.121762206060577,-0.672319519540978,-1.14520798535369,-1.16985177990866,-0.87177353896865,-0.557779491348929,-0.525367404269201,-0.867616531958595,-1.42933586672418,-1.96182413750079,-2.31557108232633,-2.47266956241493,-2.43551476176737,-2.16004930870913,-1.61155906597967,-0.828425746362823,0.0889097467173808,0.991174661281633,1.65216846028919,1.80960184789823,1.34520401745794,0.455186486922813,-0.402224655619394,-0.788008541697896,-0.56244549948859,0.0673433153335366,0.742716226238616,1.20105814909652,1.38610120293949,1.3847679688977,1.30053017802977,1.19400410491852,1.10898059667298,1.09549453984789,1.17147607237565,1.26409304509483,1.2085643709271,0.846434910518885,0.184467860868077,-0.529851254264581,-0.955161232422882,-0.94655628779791,-0.70076184156197,-0.584487317220307,-0.814508111151962,-1.29461502194344,-1.71369399339908,-1.77197792182469,-1.37385961237134,-0.704895613141418,-0.144225133560523,-0.0208669212922304,-0.369865104526994,-0.903122274265351,-1.23070396856465,-1.13517876015308,-0.677949196062814,-0.0898028176986869,0.4270746257971,0.812272162170989,1.10353714120014,1.32419869040108,1.43832183012924,1.39560068930785,1.1811001628637,0.822690142211388,0.381981432784336,-0.061996469372075,-0.451678749212305,-0.781625532101426,-1.0746977935884,-1.32943116049723,-1.50179867585295,-1.52601983962619,-1.33441212365982,-0.87541227749125,-0.170154070690268,0.60699134256112,1.14157237082043,1.16790630661115,0.698530628670413,0.0466582545952824,-0.399808698377695,-0.430974094949199,-0.0914490026893285,0.41895555085225,0.902838796685404,1.26824277998172,1.52051976187659,1.67938956556757,1.71961466995571,1.58658903490499,1.25048749282535,0.744961688234013,0.167911012041378,-0.359776660719382,-0.758108221283123,-1.02114866182262,-1.18983629610756,-1.30763441446769,-1.40204999411947,-1.46040110330137,-1.38460151269558,-1.02188779212306,-0.338596109970605,0.420484639790687,0.837182088441376,0.669617237093618,0.0924426473553045,-0.452005008392617,-0.634660089986952,-0.450784510260222,-0.0990530422192048,0.261285508576349,0.608637816317959,0.973102592686566,1.31783288695251,1.53004372222027,1.51479405837149,1.26718972159654,0.852174374252348,0.356645815894084,-0.119285931698992,-0.473210747374245,-0.656969319529517,-0.718262937515121,-0.761020031928821,-0.867282679023662,-1.05934326994524,-1.30406786056108,-1.51776178156645,-1.56891423039552,-1.31505606246204,-0.700571325918725,0.125113161692757,0.801873891302549,0.966818814563418,0.552335270846019,-0.119144977777375,-0.57680166751797,-0.562730696932628,-0.16964945822542,0.336667837540286,0.768795393597392,1.08188929983221,1.27687942999764,1.34625325277475,1.31291469739996,1.23108745039631,1.10832855152468,0.878684027230255,0.498421755583526,0.0454405472223058,-0.31354444228892,-0.457648716713955,-0.412496665627493,-0.33251855424984,-0.384412020972529,-0.626471195876519,-0.984958339390243,-1.33426454076998,-1.58190112152711,-1.67937026204756,-1.58252695948589,-1.23458874586475,-0.622195042599492,0.11922827956736,0.680884199886209,0.75747036592599,0.321046894737694,-0.301288797264418,-0.670565361127412,-0.562231697874985,-0.0646998596199904,0.568405043769673,1.10378811182411,1.42117591431553,1.52402888624919,1.48946120331686,1.38088778669052,1.20144133403648,0.937018320974283,0.62520127775805,0.35693952909141,0.203014693045862,0.141382547817562,0.0718723480591093,-0.0747786852690609,-0.247863110712998,-0.330310446073808,-0.28824084477259,-0.230475902057485,-0.30211158480118,-0.555467725970934,-0.943474433269511,-1.37936644591929,-1.74503358502676,-1.88152588280989,-1.65462949145839,-1.05795295533982,-0.250665544367355,0.486255634920259,0.850918361322217,0.68337212491311,0.11506730689717,-0.473430634605268,-0.718352977339752,-0.520560937830061,-0.0444048721274093,0.471459062986723,0.874148399974064,1.13105200600396,1.28062601650052,1.35651435005606,1.34025265732871,1.19146655562493,0.916810140374123,0.580549643877974,0.25471882746848,-0.00603381427569834,-0.155308776008398,-0.174402216047483,-0.10915483412533,-0.0534994652455833,-0.0847526093677176,-0.223332355442408,-0.444506924460632,-0.708618508900546,-0.979025501573516,-1.22720520257089,-1.4319813075604,-1.55598615533477,-1.49241325080196,-1.07545913197772,-0.264383108507262,0.644716861662485,1.12562764313711,0.871313752524529,0.110207272513765,-0.587507668145245,-0.787972870538028,-0.462362877234225,0.118312973037699,0.65003963210495,0.986406217684171,1.16988131512614,1.3207938851705,1.47444928706873,1.52241401561134,1.33398921138469,0.922187621871095,0.451758365379385,0.0881107719441543,-0.122978347077271,-0.23847937791204,-0.345352684584321,-0.513382571601145,-0.754994105277725,-1.00540871704896,-1.18750778290187,-1.30276192879126,-1.39984313496601,-1.44750222486392,-1.30761132214115,-0.865521775758433,-0.169032018759149,0.543941541741077,0.941914379293441,0.807120615309652,0.243280953052274,-0.345254708061366,-0.559830561246433,-0.309313514847596,0.190718395523502,0.660260373950329,0.963364947779934,1.13445708905284,1.26357546322797,1.3677401212603,1.37637904534691,1.23447334286206,0.973727228200331,0.662408350577296,0.338316091992246,0.0227607809368266,-0.255044858263046,-0.492049439089123,-0.72820316601758,-0.987512818291495,-1.23132098181036,-1.40195832069509,-1.48505451538536,-1.49148959913464,-1.38617712271164,-1.07277698629023,-0.494177021354793,0.218535670298379,0.731413303244051,0.74181400608799,0.274222161341773,-0.310713746293731,-0.62859721849516,-0.542354617076713,-0.142280797734467,0.407960771440978,0.944378231510663,1.32925937350842,1.51191280258302,1.54639194274489,1.50439422829889,1.38653332912513,1.14339397721822,0.768249904615161,0.347022392083331,0.0126040521782181,-0.153382568798057,-0.182882317338153,-0.192821827222113,-0.295871787747866,-0.531201827179433,-0.859331781261839,-1.19936646082556,-1.47157366928053,-1.62966302427175,-1.66631369844933,-1.57302971799941,-1.29373501717692,-0.767527514953138,-0.0663503998421918,0.539918666824705,0.742554169167077,0.464692379083212,-0.0481059299948019,-0.428754620429504,-0.46591535542153,-0.192515324327997,0.228070405515615,0.647053246320074,0.993586738378555,1.25864819982792,1.44049189476068,1.50592222662158,1.4086621402985,1.14128131885923,0.759409491770162,0.356758101731796,0.0228576305996432,-0.181323893219197,-0.235202478421064,-0.181043100884767,-0.130036336314963,-0.197163834276259,-0.403187263705729,-0.66595128292508,-0.902690692399578,-1.10979038635305,-1.3217346510765,-1.51677784537771,-1.58538606661651,-1.38314417294808,-0.828144235867,-0.010687573963391,0.758574276336601,1.08318083677073,0.777087567883041,0.0596200769584871,-0.5844113543645,-0.769706119041974,-0.457886347295807,0.107990431676312,0.660425034874591,1.08823297665,1.40511388177961,1.61539625730846,1.66865944924571,1.52840177033144,1.21834543236879,0.792745491857712,0.323889238304688,-0.0741661633815974,-0.294873424045889,-0.351191190408078,-0.37777547961069,-0.490415105470015,-0.693655633871606,-0.941769893431576,-1.21813976697921,-1.5034954861631,-1.70567325351785,-1.67644359166389,-1.30451345972861,-0.602841199958211,0.242544447362025,0.898548299836578,1.04982880796781,0.63821028894228,-0.0490479254370163,-0.569171918411688,-0.632440062715864,-0.256983177642012,0.324350546416226,0.868041708276932,1.25295468522681,1.4815118043077,1.60063769280607,1.62097756336793,1.4971412567193,1.18665324150164,0.728360946219406,0.249102780883644,-0.118362310433975,-0.324615002281345,-0.42081145081773,-0.51061565515342,-0.685933508456808,-0.969997005575249,-1.29138411782318,-1.53058468855087,-1.61590144797571,-1.55805079363553,-1.37257618125426,-1.00353641969714,-0.394299740080863,0.334389093769519,0.838704609287349,0.801758705226215,0.276992573474185,-0.293265790152817,-0.470189563526929,-0.188196781184924,0.295916795962155,0.724020183974632,1.01701519601035,1.21169886157252,1.35376136103944,1.46079327182284,1.50407367433966,1.40610233246775,1.11458794281126,0.694485139170945,0.293988119754175,0.000823908927449528,-0.221503518083235,-0.439431239865281,-0.646079585024206,-0.788886978998327,-0.86673871990827,-0.955589144654447,-1.13615442180044,-1.40998506919348,-1.678801490974,-1.7896292766968,-1.60808360707541,-1.08935033439507,-0.333173935814514,0.404693977546823,0.803495830647025,0.683370540781695,0.180484609029969,-0.32370736937458,-0.508466303877691,-0.343053126225204,-0.000388986747596856,0.385588670356689,0.80152062397395,1.23883459630622,1.60253989714549,1.76493847832297,1.66736819325711,1.35127521063643,0.9158301601542,0.463633418412569,0.0767329532959147,-0.180004185701895,-0.266196606983769,-0.205935220696795,-0.111044445245079,-0.12139919084851,-0.301809368744251,-0.611997529232587,-0.970475833572223,-1.31253524523489,-1.58745075408009,-1.73845198688037,-1.694665008804,-1.37279575359803,-0.729556116444068,0.119044153532768,0.841871078350792,1.06177053820025,0.671272399197706,-0.0299450314151712,-0.566375140389163,-0.658715299049908,-0.355937142765518,0.134496585917246,0.65315061449405,1.13274684119984,1.53418351855498,1.80450120779748,1.88522185546469,1.73384765089501,1.35093801624192,0.8142638144408,0.27166150124185,-0.139636595452222,-0.372725989701451,-0.466064701122582,-0.497149875784853,-0.566332122375466,-0.769383529289473,-1.1206917660679,-1.51996781276101,-1.82775162013646,-1.94263318295095,-1.78077523125192,-1.25570854961979,-0.390980253447721,0.536283748255674,1.07745381882518,0.952582248183021,0.318003288494987,-0.352582989163591,-0.651804467952948,-0.483764482402551,0.00264176024617193,0.599310719983242,1.13387931435212,1.4902644899925,1.63850549414487,1.63839762236828,1.5627251461889,1.41644982408882,1.15640178927484,0.775327944788744,0.338905672509743,-0.0504793734938768,-0.31622227266446,-0.460599679459247,-0.571336510709373,-0.749683248090287,-1.01746275523715,-1.31148377757431,-1.56054312732278,-1.72779579515845,-1.77082780681071,-1.59803934176065,-1.10844144295952,-0.32087603212855,0.512111467250659,0.982934268843118,0.83538608985506,0.224181031935412,-0.388131939770632,-0.61307616869502,-0.388238326183309,0.104329032073189,0.653106212030913,1.12190478404344,1.44398946095055,1.60251965577421,1.6097383702934,1.47685386265095,1.2114264560961,0.849941326235596,0.474665616694449,0.177516760410518,-0.00467068261498894,-0.116029420018216,-0.224490046660764,-0.337672996439989,-0.410640313875308,-0.451742283234549,-0.566726046940727,-0.843336391258229,-1.22246179183263,-1.54320654980455,-1.699269628286,-1.69235090162633,-1.53880162533086,-1.19533172471237,-0.625595782733173,0.0679314841842471,0.620222688008038,0.765329165826643,0.460097768544496,-0.0527182155982676,-0.42106519515132,-0.435772579418466,-0.133458593034026,0.306182341526267,0.732194654920594,1.09385467614334,1.38227079895732,1.5615277870615,1.58408924409762,1.44315302439424,1.17703973005566,0.834892940882109,0.464050989363887,0.125561378228802,-0.108403293144873,-0.197395476906073,-0.175875964382923,-0.141460240345567,-0.191091541574634,-0.364710057515025,-0.636595749511134,-0.940007819593237,-1.20172752316838,-1.38110814565793,-1.4889046709123,-1.53937430342686,-1.45731163215011,-1.07684028320593,-0.328352737083521,0.547596410989753,1.0727427060266,0.923030145191067,0.245900234287875,-0.453260419153093,-0.723800340284495,-0.464442042132473,0.10811857247546,0.694602970144046,1.12421611522686,1.39806066452142,1.57690020224529,1.65905788194556,1.58015286629022,1.30682585917084,0.894221085540545,0.449806624140527,0.0634398921169782,-0.226842500617613,-0.432356355786526,-0.603816779429738,-0.80851456220934,-1.0769289595236,-1.36139532774399,-1.57519822882993,-1.67461957446982,-1.65925833767391,-1.48571175706692,-1.05535840757486,-0.351998614011511,0.431222140386275,0.961719476314815,0.996476487018074,0.565833178223176,-0.0356515271713825,-0.43759121288883,-0.423704005388639,-0.037253845168387,0.503869007185751,0.9851166878509,1.31093853020247,1.49689965766874,1.5905017549589,1.60480843228787,1.51221394122462,1.28336535661796,0.921619276150974,0.468889007050163,-0.00557669013408329,-0.427622059697909,-0.751324157522281,-0.976426571671367,-1.12994925124784,-1.24339334435652,-1.3542464813815,-1.49639727304463,-1.64877309389285,-1.6952530922173,-1.46880038278129,-0.877287404982322,-0.0343325038220122,0.719148922228005,0.991396803151416,0.640008548016066,-0.0680922622883188,-0.631399065174465,-0.686703136325136,-0.239053468711758,0.425661608755402,1.00586566746688,1.37262738017266,1.56279635163476,1.64902267956911,1.6394810383919,1.49801611090726,1.22985905737911,0.902348474604251,0.575631174596566,0.256666960975683,-0.0597926333248944,-0.344010872839612,-0.55307031504883,-0.679354798972851,-0.761274251515354,-0.861790306375388,-1.03980988715977,-1.31228994023192,-1.62219619356075,-1.85296152575745,-1.88159807735738,-1.6148558155744,-1.0125477861142,-0.159672617789977,0.657680279158197,1.04670011994217,0.806529481614374,0.151466883211838,-0.435046979395876,-0.597022750896083,-0.330634427393605,0.147069877657983,0.64323409565265,1.07399813220282,1.40847854493577,1.6245738459561,1.70631575824463,1.6334056598298,1.38018485950962,0.96282275798009,0.483360189659348,0.0866588470636316,-0.145226937151199,-0.243445395960007,-0.296623983449199,-0.366633086223783,-0.461223275980922,-0.559664839656379,-0.65136143483631,-0.763890491347568,-0.94892801519131,-1.21832933919096,-1.50212492870354,-1.68459077805993,-1.65345426123876,-1.30628527651118,-0.603632772471276,0.285875454730694,0.952514683836228,1.0167700171125,0.49218712558444,-0.191935313651417,-0.566165046405158,-0.473205639010862,-0.0572341608334076,0.471491556635535,0.974921350310879,1.36725568486079,1.59175968667651,1.64795361098517,1.57914800586747,1.40365517953516,1.09911009344694,0.677518729212224,0.231631786949821,-0.127783622011757,-0.353365815560106,-0.466366091925925,-0.527335090403409,-0.622820975821232,-0.82733664453312,-1.13422145569012,-1.44666178451996,-1.66125536284061,-1.7333924866131,-1.63621306268388,-1.29866058090919,-0.665051544845782,0.150032242584687,0.81580949497765,0.984404568762105,0.59307842176561,-0.040825048132186,-0.461007908705221,-0.422122434637654,-0.0144511388943666,0.505391287309415,0.949561436041804,1.2763127048846,1.51340373406102,1.6699240110084,1.7137386219946,1.5934908853689,1.28382980145405,0.838015855270478,0.385704579630403,0.0435381286026096,-0.171606544841262,-0.325354110102012,-0.48634023141023,-0.692414108238595,-0.964396514004105,-1.2930744613952,-1.60418365023017,-1.78247872349181,-1.75895394174452,-1.54927321043824,-1.18262648426391,-0.640207749378251,0.0555248150405762,0.699502702543936,0.966834071680244,0.6991102155651,0.0983653393255478,-0.413043693897858,-0.517654735059015,-0.19061501230531,0.368752270837709,0.925071062236577,1.33809544914454,1.58042521671011,1.68297116801964,1.66292392921255,1.49067161699559,1.14259590595265,0.689188045395833,0.284940793497003,0.0413797227324224,-0.0587201116922495,-0.104847566031355,-0.161995829245366,-0.254006941250383,-0.39521506287266,-0.593003836822977,-0.831922319721673,-1.08552602149412,-1.34624124437437,-1.62115547946485,-1.87636982629397,-1.99241974043332,-1.80765318846766,-1.23411649375452,-0.363015779617911,0.504998165326815,0.966580070612296,0.776688272740593,0.0846084972232163,-0.626635446784115,-0.897570137225525,-0.614628333011157,-0.0132956484704685,0.581603901330487,0.9992004118471,1.25831339929835,1.44347473049424,1.58518630187988,1.63347818864819,1.51124950846478,1.19879021835547,0.779411657439986,0.38837520962394,0.111021128311554,-0.0511769415633595,-0.122324486722364,-0.106883578997861,-0.0235943046584855,0.0531136885711656,0.0304334026272798,-0.123665962250328,-0.362895982350977,-0.627939120571794,-0.910411558077729,-1.23710052918084,-1.5905140512931,-1.8567603290834,-1.87031571586559,-1.52405858487387,-0.851190180149766,-0.038306557977306,0.613606474854118,0.802070631374931,0.427226777893167,-0.256056590365668,-0.757333904719639,-0.715874742612424,-0.178659217825818,0.488430518172605,0.954202184633256,1.17346348270095,1.31089492124176,1.47899730462278,1.6003422922737,1.51728338634075,1.19126268714163,0.764437086014698,0.424552317479367,0.230606751814223,0.0979352919699737,-0.0587996099016844,-0.226711960251968,-0.35636461601892,-0.459103184349709,-0.594586209320638,-0.797859542834094,-1.05897947289934,-1.34550545993413,-1.60741706190668,-1.76735974337246,-1.71692106729817,-1.33485538820692,-0.580490344778339,0.353430448465173,1.03106399137741,1.06543302748169,0.487581755262458,-0.234637405202877,-0.588986965947084,-0.40216600120145,0.145509536818283,0.770030461566773,1.27998970834862,1.6053857244629,1.75676459008145,1.78181032295672,1.71034320831263,1.5245256072833,1.20748800203675,0.810560123694159,0.432943655354531,0.136993895502471,-0.0837907213062589,-0.257055784153627,-0.392771784815361,-0.510607673024257,-0.67473346654879,-0.951080537737771,-1.31725344001654,-1.65274067668239,-1.84678654031227,-1.88725822884429,-1.80065940814498,-1.52514026314513,-0.934735160621042,-0.0639532528751806,0.738453165328487,1.01614758822814,0.632342658037747,-0.0635212280431706,-0.538772347643003,-0.512381415151428,-0.0848271779698731,0.47160539592273,0.960728125813041,1.31893300462945,1.53189296920337,1.58824149985836,1.51447883802095,1.38418993861609,1.24746156782555,1.06976845877924,0.773125665035516,0.345166716448622,-0.104635563093423,-0.415675782843973,-0.509524431434212,-0.443663141434686,-0.3431500406653,-0.312300777207489,-0.405400052757371,-0.623265038557714,-0.91195951138308,-1.20235293456374,-1.46946590841353,-1.7195626022404,-1.9058544472462,-1.89258146123454,-1.53364137861447,-0.804877972691077,0.106152030159684,0.834157244237184,1.0385613676512,0.66805099584434,0.0303664775764856,-0.445059657608469,-0.51988362966216,-0.233859794626734,0.238742548417168,0.745246406188649,1.19581276996615,1.53416608113577,1.71688858390404,1.72003651221611,1.54305299437031,1.19905434105481,0.729677436829449,0.242368636829709,-0.117912468591369,-0.278441155177467,-0.291586217410508,-0.25402357294055,-0.214002433577707,-0.180505324872124,-0.17848675128934,-0.259820617363494,-0.47005801841685,-0.808709030835103,-1.21271390451134,-1.58255631560769,-1.82336222363065,-1.84857858984039,-1.56661509453061,-0.929189254152381,-0.0423145703136083,0.779881302121822,1.14291193681456,0.85497065591633,0.133281172110038,-0.516186249826915,-0.685047143879822,-0.340876459338466,0.24785441633269,0.784454413996026,1.12889527040338,1.30969963849814,1.43265823934796,1.55691585005188,1.62005752275296,1.49675775786686,1.14621050163382,0.673965104131114,0.230287012524999,-0.117500520356611,-0.383243370057277,-0.572367749834374,-0.658111612007047,-0.657271134418809,-0.677904521085901,-0.839475284317838,-1.1477806935916,-1.48411149415459,-1.71554595207605,-1.7712196877423,-1.60289011133674,-1.14139767655047,-0.380931221134009,0.474244710590096,1.02799806514023,0.97504926473689,0.406402893319879,-0.224184594993178,-0.480105403992794,-0.264383016526027,0.220992690931044,0.737017769229119,1.17319171840768,1.52126543408966,1.77997955078755,1.90828614666911,1.84958019556928,1.59049170696296,1.19439623488433,0.766847209070776,0.38208978847789,0.0562247967027461,-0.204833981107952,-0.369146774117316,-0.428927306129894,-0.461580977905788,-0.579752850296648,-0.816340040492228,-1.1074661488664,-1.38591492010175,-1.62678477847245,-1.79197084036455,-1.79671972521817,-1.55584079639977,-1.03389245026857,-0.288359122011042,0.457862015337051,0.842077759959189,0.624653602945042,-0.0235006032060477,-0.596801104584057,-0.679328054647979,-0.259654912117676,0.366610942879437,0.912956353442954,1.27374429411841,1.46228359069203,1.50496847034014,1.43665902265153,1.32394092628667,1.20901026180716,1.04466236730576,0.748331825171744,0.326275061005389,-0.0951299958087859,-0.369772737489656,-0.449060106328256,-0.408455606391202,-0.376179970145904,-0.436466441803076,-0.59384535414551,-0.816039964086481,-1.08404197424281,-1.38399296490712,-1.66639443358709,-1.83732555944187,-1.78688779851406,-1.421016819749,-0.715203770086667,0.184414855771146,0.921999990315837,1.11591167983512,0.681311157059321,-0.0468950103274621,-0.565047235299062,-0.583072549004093,-0.173336763763234,0.39083778582619,0.883192887153311,1.23051141287617,1.45335864565482,1.57138021585047,1.57562998473036,1.45581572912486,1.22138361692843,0.897927988412588,0.523131177294555,0.15168687052961,-0.15283207743772,-0.35143273802577,-0.458480464237243,-0.525953545967617,-0.596161219038315,-0.681534701638834,-0.793131145354111,-0.969485949404907,-1.25148709440454,-1.60918318902422,-1.88848601261424,-1.85418059252884,-1.33973441897855,-0.41655843961072,0.558847202386566,1.11637074810067,0.99212066758706,0.342894560437662,-0.361498648524708,-0.686283965639846,-0.504295270385039,0.0139962232978489,0.604116226220052,1.08292982537613,1.39315118572085,1.56503929037125,1.65072588987392,1.65400007817235,1.5155242304581,1.19130945831003,0.732216003679466,0.257591005237675,-0.13044245401211,-0.386877097991456,-0.519906722261221,-0.590376162296599,-0.689463175239093,-0.86864504136319,-1.09539116905958,-1.30732417448215,-1.49101288146645,-1.65581402899499,-1.72790866802907,-1.52831789598022,-0.916022924370475,0.0150031489838616,0.887151018774654,1.24868312941235,0.919343804269184,0.168300021884829,-0.474287165521518,-0.619538171574162,-0.263022768539044,0.325474289530562,0.888896931025325,1.33835777499037,1.68595550946053,1.91553908456597,1.95597007111069,1.75535177574626,1.35187673233222,0.868072901878907,0.43740438880471,0.131165267333753,-0.0524125246874302,-0.150387479825442,-0.20927659082447,-0.277844294994355,-0.386223170711669,-0.534988791149586,-0.726529194618657,-0.985815461106872,-1.31935269023881,-1.67125505459757,-1.94967924544251,-2.08121734549367,-2.00362464230849,-1.62357188824286,-0.875594141964294,0.0995930475299937,0.887789625721582,1.05497069093027,0.542296546612215,-0.232565573549977,-0.710344722677018,-0.617036950712417,-0.0814540115251755,0.578537829203643,1.12151641313197,1.47620416871541,1.67112107708118,1.73753512544549,1.67619274534967,1.47660501600607,1.14534330664862,0.721387026661972,0.273683895790151,-0.11349406584365,-0.363847143581387,-0.445677927823437,-0.400062906712364,-0.316284777117714,-0.262572643364887,-0.243892710333587,-0.233895182844698,-0.243464163375918,-0.341305979717481,-0.592674065891791,-0.984550187752374,-1.42266059380225,-1.79055658936351,-1.99800059046875,-1.98350037544097,-1.69262935758059,-1.08487461310865,-0.2141406741351,0.671211383518458,1.17585936198279,1.02608206900411,0.34891917504306,-0.356965369446449,-0.593681366455229,-0.241563561758172,0.41106470219005,0.979681039724095,1.30484780286528,1.49007665576401,1.68555624198687,1.88677597993453,1.9428074571583,1.72131139020982,1.24649479509418,0.693877056231705,0.260598458797854,0.0254002332736567,-0.0726698662125619,-0.120948030154403,-0.131588998540258,-0.0806585642725505,-0.0111246735187461,-0.0376253734520376,-0.247586251889321,-0.628832362272433,-1.09117860520336,-1.52872369020644,-1.84465157183528,-1.92500893160257,-1.63328613672866,-0.910021846575576,0.0677654396398907,0.862552304869681,1.01669356344378,0.403781275322678,-0.637747418601197,-1.53928650872529,-1.89428582923467,-1.65524895076833,-1.01662826305376,-0.183591032708138,0.727275969436235,1.66067910063475,2.52466515100247,2.95694758943015,2.44766428351565
