-1.22972937273133,0.332683405351144,1.28884438590006,1.06678264312541,0.405974258602566,-0.0490245753086337,-0.0481137267014695,0.407168355199355,1.0361592522504,1.47467450636838,1.53151121288675,1.21988511937891,0.684121762514452,0.134272919723022,-0.243677469841241,-0.37743701671196,-0.317422883045316,-0.209157608839829,-0.289411273961577,-0.784276217228508,-1.6336245774207,-2.31952059849233,-2.20137103775316,-1.23436351475234,-0.219211624135191,0.00813833996035764,-0.367674405742591,-0.286835190840042,0.855312747269211,2.37465141731994,3.03494057860148,2.39632322029621,1.16211907840052,0.289560907419081,0.0565043627812886,0.0722024940781296,-0.0480944335580285,-0.27073691100903,-0.367570454891661,-0.343159014712848,-0.503487479568593,-1.08111340434926,-1.83886425627051,-2.17133002731017,-1.72810510470474,-0.86205452915679,-0.238489340380232,-0.0191090780488247,0.267522267843098,0.976704445685452,1.79731299581018,2.13907647739542,1.83243907373688,1.20497419289604,0.587957938297691,0.010237885762012,-0.588285531627941,-1.04365625361964,-1.03906664262343,-0.482468589872967,0.28161502655437,0.709186354257967,0.531243447074308,-0.0263020217019615,-0.515898132259896,-0.711406077990332,-0.717549460519347,-0.705204012711947,-0.678821298093455,-0.522333185589878,-0.16675216941195,0.331131723975413,0.813221894428072,1.10008601078534,1.11203762698481,0.939133751779982,0.734317836064934,0.524202814158137,0.205467805651253,-0.249608651329687,-0.680846310662869,-0.894005226312171,-0.888318477210372,-0.893904442793456,-1.15381671629911,-1.60931075396777,-1.82994945536005,-1.41013341261229,-0.475405206663416,0.380368127699372,0.760769152938789,0.905747270772465,1.30407165020201,1.97670449142057,2.36948034188666,1.9895488103155,0.984935005823894,-0.00592874533841038,-0.49285599213273,-0.51738632580036,-0.440710737350617,-0.469899557995281,-0.469237379325296,-0.244910277676981,0.0672181357931856,0.0501368370755423,-0.498861250523382,-1.24206596127818,-1.58927422728764,-1.2805511250349,-0.624365923895815,-0.171555802268433,-0.162254157051077,-0.281847132975207,0.0113833121874211,0.888765557054381,1.88646419381753,2.25304897729038,1.61670931570801,0.384697082379879,-0.560384639423122,-0.679532358366839,-0.259428035236946,0.0244882815035186,-0.110184190381222,-0.421958368789682,-0.661238905116966,-0.869967123698116,-1.10958930819077,-1.16967279947657,-0.779578012420058,-0.0513944120988864,0.524284991855422,0.624160415036088,0.475016158731204,0.552391010013623,1.00487954951358,1.51662447813193,1.67180343339567,1.32686951665477,0.652124046971081,-0.0660512347345789,-0.603759795583195,-0.836529824695929,-0.719935093157552,-0.344233559900565,-0.0140022204135323,-0.139336600715253,-0.879778249500476,-1.85579601811404,-2.34653613442079,-1.94193150595214,-0.999149835219447,-0.289280202554182,-0.139960054767838,-0.102079460775564,0.439643660013287,1.50026176127483,2.47332772733228,2.75181604341441,2.24544423438986,1.35714521110702,0.570306998815098,0.0882882025674379,-0.163521208471962,-0.28595390973652,-0.274647447725494,-0.148457084504256,-0.100697292470355,-0.404779370903373,-1.11028347372162,-1.85587110011174,-2.08655185000542,-1.55855034482803,-0.632406949130444,0.028712320708083,0.132455482932129,0.0782376563446725,0.481017654898926,1.4002586048615,2.22347578487478,2.33683886798143,1.70124003809504,0.712017859602083,-0.240195324035016,-0.9024817018858,-1.10702314153187,-0.883450092108239,-0.532504842556932,-0.351753709921279,-0.355557080095189,-0.446903558382376,-0.698628922579343,-1.15433917318483,-1.46902432758617,-1.16929650927148,-0.32676923083483,0.399060600785537,0.541658814200335,0.367819416866281,0.464774012984731,1.00641005816215,1.61194768324673,1.79487092501085,1.39604133531987,0.641742504697019,-0.0978960960747711,-0.582823748627904,-0.778886307206561,-0.738485787502976,-0.513697516451817,-0.225847517349519,-0.115719155892028,-0.392558833182481,-1.0089166871614,-1.61902056444889,-1.79031013199529,-1.33966780098295,-0.544397651404351,0.0589504673902834,0.227527194296272,0.302455674943192,0.783019638530926,1.67200511306131,2.43013311754465,2.54176401036533,1.96547300652079,1.07618175330111,0.321743671920293,-0.0749441579160708,-0.181711041891533,-0.176686638171092,-0.159225417341791,-0.188073599724119,-0.400195440672274,-0.91385035578433,-1.59754877542205,-2.07606699786407,-2.06718551319564,-1.67629946505452,-1.25898888404542,-0.985975802829091,-0.669749714075551,-0.080812316695421,0.710943707577537,1.42799793224291,1.8829178205711,2.03842035084832,1.89375639556354,1.49470072180363,1.00710161034777,0.637283891145103,0.474630029092603,0.454788268955332,0.425234819293386,0.2005304897643,-0.368891214990111,-1.25914012771799,-2.1661880284656,-2.62215491019909,-2.36630597433305,-1.64603124555731,-1.00580137560425,-0.678185218114169,-0.343363622450686,0.36706301729208,1.31153817056989,1.98775010725246,2.10036785192416,1.76819155533051,1.26038660211942,0.744542324702457,0.294496228869883,-0.0160278269683751,-0.115644985329769,-0.0122725884352175,0.150952793056774,0.118062727923366,-0.33576839294908,-1.14869758881561,-1.84138234332302,-1.8500925755368,-1.15540172434597,-0.401932254086991,-0.152078589143688,-0.178689668090394,0.184188622479456,1.09456064826284,1.97148915770091,2.20102966941537,1.75112901370418,1.03003033561271,0.396565679200974,-0.0600653050974634,-0.401783280807781,-0.661452816277809,-0.775066089935933,-0.642420370468301,-0.297810200249457,-0.0472216614838513,-0.283938596497639,-1.00538893743869,-1.62435511808255,-1.50645000491962,-0.70836340956612,0.0246995034917481,0.0982297871942788,-0.225270241415903,-0.138671739003273,0.710353373176471,1.75910860004384,2.17201914311661,1.73171399478958,0.913383570577176,0.250942397075418,-0.122039660069089,-0.36316990695344,-0.59318661841428,-0.760718557903655,-0.742627371440326,-0.512529076749844,-0.241908942071811,-0.236584405385755,-0.679139188206722,-1.38326795157001,-1.87323267657282,-1.77353579882369,-1.12504130223071,-0.334457405465133,0.179438103317497,0.355344694390475,0.546453292450331,1.12772796565416,1.99407751112077,2.55898643544664,2.34627663073276,1.49717033530441,0.60654401836005,0.136975392801753,0.0650633145554836,0.0457345914756546,-0.133043795861499,-0.287419167261875,-0.108305289587836,0.29368843778114,0.296570174011847,-0.58788869260152,-2.01101354211016,-2.93686050417193,-2.63799760721767,-1.465898107278,-0.453092983585338,-0.172206818651275,-0.220337390656925,0.121145216030919,0.988187760519569,1.84988515087661,2.11420993234818,1.6220207758737,0.671683073856144,-0.227595852528825,-0.651764708218474,-0.489651703806578,0.0506497819208001,0.671894507603335,1.17250244771923,1.38227083569945,1.08485133509149,0.215270982024046,-0.890769989746057,-1.66031118395576,-1.80849336922141,-1.60608695233797,-1.50198592581673,-1.52854198140211,-1.2580345222058,-0.392616362918595,0.791195926199132,1.7101727877886,2.02588486767489,1.78851579183119,1.21765397265934,0.5644154132235,0.0724995966155139,-0.158008065017315,-0.231454337958673,-0.247250870415708,-0.132399400453676,0.147047727634749,0.301215532511125,-0.100302563593021,-1.06989577207283,-1.98376783060093,-2.12079272245279,-1.42425822981987,-0.557267793624605,-0.138811203534396,-0.0862723110733707,0.171968130520625,0.960026418346546,1.97688238427883,2.60591194014726,2.49179290568581,1.80493602151455,1.00294329307947,0.399805437056757,-0.00652482390710261,-0.349313613871561,-0.651133871793214,-0.801800008211991,-0.71803852090239,-0.487820056025156,-0.386959157890017,-0.722078052491704,-1.50622189371928,-2.24061856011752,-2.2292674952592,-1.30894858645214,-0.150959331653876,0.392716561933706,0.222446243310259,0.0760407359775971,0.645266917584148,1.76073169322623,2.55165454500765,2.35031021834511,1.34952218106206,0.36205740774918,-0.016248708494595,0.0611294638150481,0.0217417072511583,-0.355263707845033,-0.675810625993081,-0.481083778703739,0.104867458394515,0.416064764928493,-0.0958169404202745,-1.27714530652593,-2.32239708740716,-2.46012813520813,-1.67378264531021,-0.70014992762049,-0.249666035686884,-0.294134646325204,-0.194734053083787,0.532321901602594,1.67329274193643,2.52123750769329,2.53345575469301,1.76718718111974,0.762251766237196,0.0698103951750592,-0.163741716881701,-0.222139935337069,-0.414576766371261,-0.668762930840444,-0.633968514332279,-0.184153006828935,0.320224252080692,0.325111799124364,-0.401782623809148,-1.50596063022754,-2.24844542085392,-2.08975000358527,-1.21003666569627,-0.379861236671608,-0.160681652392693,-0.276654894842461,0.0267736349111709,1.00093252347741,2.03612481460319,2.40252123464379,2.06792472774448,1.52661396230833,1.05919099833861,0.560583737498928,0.00758787285110651,-0.346320059339453,-0.333815781456924,-0.104305251506894,0.133879895756907,0.316849112566858,0.288123404069995,-0.353621242602891,-1.7566135157805,-3.20560354097926,-3.51437914823721,-2.34379212356695,-0.796929557483518,-0.225867698665071,-0.601700210210416,-0.609635725497936,0.631549272605223,2.4917733188671,3.64488828272525,3.50518482504123,2.54651957925398,1.51370754655579,0.741475806425906,0.187660312605837,-0.223094957122688,-0.442318498433612,-0.399308237699989,-0.198403475559819,-0.172722293260732,-0.62988194474873,-1.49846272030163,-2.31082980056908,-2.58413382117124,-2.19453787724516,-1.41871459320585,-0.679360336975752,-0.209455463731647,0.119220994524261,0.629515771889957,1.44718031690301,2.27091524549266,2.57770717766925,2.10866205033635,1.15975504608466,0.327648789668205,-0.0715308603408752,-0.238323102615506,-0.472114921386581,-0.674072858126389,-0.490626083305198,0.0863506472636869,0.496479745515424,0.110812022505928,-1.06702511840097,-2.25343655111967,-2.53240629501502,-1.73588482996204,-0.624365841809341,-0.0780823164919322,-0.152853288166993,-0.0972661924115419,0.691941774983531,1.93265339807414,2.77329523499282,2.67999599603956,1.85293054614208,0.882644187589726,0.202035131507911,-0.142560182466687,-0.350970637708894,-0.574431381472833,-0.741252037780539,-0.671933077162969,-0.343458166249938,-0.00285699520239587,-0.0297451793680191,-0.639878431876012,-1.58754747820005,-2.18924958784838,-1.89470591489374,-0.930936268717834,-0.154655710990807,-0.099151067630223,-0.333397551033676,0.00851773056869428,1.12916772621693,2.25974455008048,2.5241899789579,1.88620790473792,1.04931026517942,0.57853085750028,0.407637036246672,0.186797330616559,-0.18289039038845,-0.498494368721616,-0.573246611163056,-0.432095618822533,-0.236511892734497,-0.167763308641588,-0.398916938734112,-1.01429360547576,-1.82664898848541,-2.36016682454473,-2.19811851878525,-1.40220434652981,-0.49483303795099,0.0509075512226066,0.269473974064204,0.590070251849457,1.29146694457528,2.1495117096574,2.63327391640904,2.38344818941381,1.4994045489403,0.454508072344642,-0.234568337428428,-0.357811614905058,-0.131688318512886,0.0498734347097129,0.0213999916407667,-0.0431014333335331,0.0379143700416964,0.0921748523393664,-0.2990887719758,-1.27692406590122,-2.35997285078403,-2.76780524234887,-2.18573393144095,-1.1453399033898,-0.482412860460461,-0.402372129303078,-0.282608784972531,0.501948303750115,1.76273113579481,2.68736650783899,2.70843281932001,1.99071042371165,1.13169067718479,0.577796148333181,0.36610349494469,0.299882478465168,0.23612460217616,0.178525394805588,0.178387603852069,0.204380526602391,0.0687702049881711,-0.500765448194664,-1.55540902944519,-2.62771671014663,-2.95601523651007,-2.23911272710149,-1.07409766642612,-0.371411264038861,-0.325284647075874,-0.23275061142939,0.574427869243122,1.8652424787277,2.7538791510607,2.65142808581119,1.77402490411625,0.780326864870933,0.124127152788814,-0.184918490562889,-0.34597007776608,-0.458538995354765,-0.446628637847981,-0.199937521343031,0.221874276087434,0.47750973976008,0.105764212320869,-1.00836934585358,-2.28036906639848,-2.7702983240497,-2.10242008691698,-0.937004107469887,-0.279162473413775,-0.34465302292016,-0.362222722912653,0.451541690176851,1.94754948508681,3.18742848999152,3.37317530803152,2.50457226002766,1.23929541287658,0.286181526007992,-0.0960907080258782,-0.168043726337346,-0.337869828187456,-0.683837459471715,-0.878065282283189,-0.630528600997118,-0.125942086172525,0.0922126091642488,-0.355007235916325,-1.33229954949422,-2.2795183027518,-2.58439764736415,-2.02664109792108,-1.01415230721762,-0.251678932428407,-0.00145420226646886,0.195536573786594,0.880123301454338,1.92668610306779,2.68768026056254,2.74545405934048,2.21897784929554,1.41842218831119,0.550459030227999,-0.208006291894367,-0.654119820553389,-0.722717406661235,-0.576067011046799,-0.434829560245314,-0.365568189748728,-0.298449551641536,-0.261866850588016,-0.503628815748871,-1.20862508511453,-2.07731393933523,-2.42428575555327,-1.88730131169709,-0.902172175756344,-0.244901473545932,-0.153798667385615,-0.118760887668819,0.455399555325397,1.54987547292025,2.53301466336595,2.75694599821089,2.11779693868417,1.08147615945267,0.233249792944465,-0.149657192397581,-0.159955274674021,-0.0721345673276142,-0.113581129262526,-0.268803422966216,-0.2827837192885,-0.000275238758030813,0.299890030683014,0.100256760114828,-0.752680441184084,-1.76989922788385,-2.25227568933594,-1.98243453302649,-1.40304315816661,-1.04705648619083,-0.878118098753535,-0.399858066949696,0.588095444147333,1.64307602934979,2.20544543753732,2.19948087745632,1.94282248862253,1.68145151491561,1.40657646815212,1.0025819463329,0.426173580193765,-0.199490523289732,-0.599657350026423,-0.551062602475081,-0.175392407773029,0.0260320482324173,-0.420690801871256,-1.44716421393287,-2.38508176086061,-2.52283103096097,-1.77750180168413,-0.781849146165535,-0.233904303487203,-0.175813580078011,-0.0228065935267929,0.680752424029375,1.68806531094082,2.32493228717531,2.20921330890174,1.55244126136904,0.828906864947427,0.323625195522332,0.0121375954468133,-0.246819300686457,-0.474694192273276,-0.538270088527189,-0.351714958835749,-0.049025318198579,0.10753303747256,-0.0916659321101309,-0.751335251809485,-1.76147740221484,-2.58775281203602,-2.51202113884777,-1.44312055244229,-0.229395525784362,0.275759067810186,0.272474699721801,0.657359958481358,1.72814353572877,2.78411633909509,3.0474712988755,2.48391582392227,1.56338749394674,0.640883333436866,-0.154459770039466,-0.703574396799543,-0.909176195315603,-0.85377593749158,-0.720641132653674,-0.564744374736362,-0.328474558328541,-0.10541683548921,-0.216873139850075,-0.882839089107968,-1.84204616583831,-2.41714706903456,-2.06596833159786,-0.934186026655422,0.177938727532647,0.549512457089217,0.303734806003362,0.28698335923359,1.06575836831791,2.20167424797629,2.71326168297901,2.15395739967526,1.0246326972396,0.162849618786893,-0.0723978185860315,0.0330442031469709,0.044623301622785,-0.116672805280206,-0.21604317476811,-0.138874920105127,-0.0764241916216237,-0.235672351485373,-0.575733838550278,-0.96907949548251,-1.4344380581866,-1.97811535091555,-2.31225747503732,-2.04287644723455,-1.20341168363154,-0.333030024158297,0.148810147413195,0.434691640046018,0.967888886435191,1.76007085820427,2.34593122307044,2.33237232713665,1.76475168978305,1.00122398803804,0.394779064331377,0.0628117572364368,-0.136446092634459,-0.372182572702529,-0.578417926420595,-0.538255584156123,-0.233468203926683,0.075401918162069,0.157795542174987,-0.0188350445230219,-0.489049219159414,-1.33899817580806,-2.33381114092663,-2.78304588269039,-2.18802831910815,-0.947701586353415,-0.0194552403404095,0.179834870315611,0.194670518880754,0.745402273795972,1.83221952903792,2.79685109488346,3.03518506638122,2.45629591282148,1.4320473598327,0.517392209964116,0.105026179664458,0.143978996234384,0.220976682953447,0.0230544929633888,-0.334028141923372,-0.51663773884281,-0.452093398990031,-0.510335465545428,-1.17352722837031,-2.45242711564876,-3.59958306122201,-3.6086446342284,-2.25375674969202,-0.517042768195982,0.367748344624726,0.290136375174054,0.321129194282061,1.33924099500743,2.96887746845687,4.03753195061095,3.78175968670183,2.42141356043047,0.807858084137721,-0.256541711468266,-0.511448199908229,-0.309005470104841,-0.207394925563868,-0.422451836701928,-0.703515545587495,-0.735631752417425,-0.553471462245862,-0.522972675843414,-0.973585889199434,-1.83164763088264,-2.55351771340061,-2.51235210791799,-1.62643399261861,-0.554244743024383,-0.0258291764597115,0.0202891109420801,0.34112402421372,1.35658130964322,2.52373124688334,2.93477781377148,2.3304117398021,1.28959063098011,0.515200884990723,0.184877849876219,0.0459143469192219,-0.0932105472704473,-0.184922051901579,-0.151539405448383,-0.011963796570495,0.210864582764168,0.475701870993785,0.547025766149244,0.0622814492168043,-1.01441751234706,-2.07978377208915,-2.30446500929637,-1.52243316848451,-0.547765459552492,-0.323284816239764,-0.79655786572719,-0.976191355602523,-0.172465394912903,1.16023408936205,1.99833785885044,1.87615303178645,1.17729781468167,0.513574921459475,0.146933326804501,-0.0285253843834064,-0.210626961323527,-0.461528235110403,-0.652857255278745,-0.614757379329237,-0.339834620325204,0.00989828792353601,0.263429341314466,0.31181458352326,0.0751368380464134,-0.425394645652421,-0.932160208066764,-1.02771609344857,-0.469700972381361,0.505090942505567,1.33972777199773,1.67812976231778,1.47977916875524,0.8117315888872,-0.259966881412123,-1.65707428251619,-2.3263689492672,-0.638260558197159,1.68650992309321,0.471116037574988,-3.08973245079776,-3.3442624003479,0.0722314396295452,2.67671167213807,3.03455109444225,2.51110482567262,1.36533529964165,-0.448508910471545,-1.97201574513131,-2.24658032049115,-1.35227439553113,-0.338772177396438,-0.124899113769986,-0.540854665848282,-0.725309711585148,-0.181601433944872,0.836355697618857,1.75584694713843,2.17627417688439,1.98268083805991,1.29813338966417,0.437277018585236,-0.250914181056418,-0.597712919440211,-0.66254938277891,-0.601311095244247,-0.551040421093418,-0.616514978619826,-0.866714502792302,-1.27599091388956,-1.66498761133134,-1.73746894981485,-1.26346873780615,-0.326479189495669,0.613443448056466,1.03731165431851,0.865603171678634,0.597070512826835,0.820360266081383,1.55107950387913,2.13723304231258,1.89566961937416,0.828699125156805,-0.348711264965518,-0.915012198600484,-0.821442022591023,-0.60410896412456,-0.670856343423119,-0.837107947552452,-0.644755897084139,-0.0109608939412321,0.607756831110328,0.685430946918514,0.127066920385789,-0.718094814852841,-1.38900526791168,-1.56765153605746,-1.16850055146164,-0.404226012316799,0.269254965970346,0.499007885675494,0.400512414243804,0.446290620934071,0.915925803970504,1.54513942980313,1.80269320071701,1.45973229616056,0.787092164087627,0.215421173880941,-0.072164158860782,-0.179988424208738,-0.257734528860362,-0.317754763011897,-0.265435357845401,-0.0501394676314285,0.220588588542778,0.296200112354635,-0.0589855051942833,-0.832943738733399,-1.65603101228658,-2.0206482280295,-1.71353469313816,-1.01709617819674,-0.431770318884346,-0.203385357666825,-0.143604155566451,0.102088866339563,0.658481084757796,1.31670386437937,1.75947207281511,1.79518065287891,1.41621938285624,0.782567077332049,0.166988469295982,-0.213410841425473,-0.345761686827139,-0.339466431855145,-0.250959220029559,-0.0999123582078174,0.0155138850019988,-0.0105137579911632,-0.139604723953968,-0.28487811519889,-0.520575213470449,-0.95120045497733,-1.36464425678409,-1.33546468313414,-0.795609084368629,-0.203352900045641,0.0436086442488068,0.107105074562975,0.394965780439645,0.944825877110647,1.3776834523429,1.37769704348282,0.997212204686331,0.505470038233492,0.123939576076514,-0.060860304443007,-0.0936846455292755,-0.134645953383786,-0.309547021020098,-0.497123199504673,-0.408205692384691,0.00208827095492782,0.316082270429512,0.0308032044549846,-0.833012511900706,-1.6251897933866,-1.66350236362358,-0.931493834299305,-0.112147986575838,0.136333909988968,-0.103459257887244,-0.152788154190299,0.400275496732589,1.21166734384305,1.65758619658504,1.53152300505986,1.06509688862816,0.518829734303608,0.049911774513102,-0.192675532902588,-0.165236433030073,-0.0646930231120418,-0.125767897036917,-0.298328287013113,-0.308008732362706,-0.045794353398502,0.245981484266065,0.213097732743643,-0.262840196010201,-0.949577321246159,-1.41798426848893,-1.35462587210968,-0.84722558095731,-0.331913190231919,-0.127434028217043,-0.0691597905564499,0.229475624721083,0.805433678326698,1.26673620142546,1.3012279286968,1.02765850537281,0.736242682441938,0.474692638965997,0.0897702880444975,-0.394964927735204,-0.669559516355598,-0.485520389008808,0.00950331384539591,0.39960763410818,0.429015379841008,0.221856638905433,0.080184915621346,0.123555591924129,0.151379076731136,-0.152095214306531,-0.862389669290805,-1.62693391417886,-1.8757503376556,-1.34606694119854,-0.416223374702162,0.225108461223124,0.300026069859305,0.20334261162349,0.482915152705402,1.18583965157126,1.81328711196272,1.847839752964,1.23675090779106,0.389024142941566,-0.211187981924132,-0.372305526032744,-0.270619872577045,-0.236999203717345,-0.438550646375634,-0.723114166101506,-0.800982420450409,-0.584533285508903,-0.270446386039393,-0.0605004151082374,0.0777911442202822,0.263114411320056,0.398689975322264,0.208885147674028,-0.36667476289374,-0.945520544683001,-1.01527699298,-0.494510857808667,0.116627254657972,0.24851103224268,-0.0895741791888656,-0.287642960198842,0.178130934337269,1.10490396735463,1.71364944702032,1.46075496770965,0.606307211392656,-0.118826273384437,-0.325450680483193,-0.249531553006041,-0.248632357292717,-0.317133285035772,-0.260317845223002,-0.106540721440505,-0.0655641174450214,-0.164023118411016,-0.185211520462123,-0.00387479039256991,0.198157448530057,0.129971367916978,-0.292642821045605,-0.877361190140131,-1.29538464661992,-1.26248094420728,-0.750436987763381,-0.098856472593851,0.24715743578107,0.207550592268147,0.151157826543098,0.446648803770678,1.03853918317819,1.51265292123043,1.49478717110212,0.960848205028639,0.242673678724973,-0.230634237304504,-0.271882067251719,-0.0765542795887629,0.010561601342401,-0.126370153216709,-0.301718603148781,-0.311551241170044,-0.162839595406043,-0.016905440915243,-0.0305578677488038,-0.278152381738658,-0.718422956721381,-1.15667679062141,-1.29513499602248,-0.969392212258745,-0.387318939236441,0.0187991953692218,0.0891351924171263,0.134519610034834,0.496853078398596,1.0645078252195,1.40601655343677,1.27853050764022,0.828854471873857,0.359245228715586,0.0580489018498805,-0.0583881306149318,-0.0739831119235195,-0.0829866385097578,-0.120332865785919,-0.152072798131538,-0.124248897118561,-0.0132377787591807,0.132096186510275,0.152312645834383,-0.157087791080827,-0.810456767633958,-1.44553783662779,-1.53625852575596,-0.942232847495581,-0.163547666674377,0.151348192708407,-0.0553761862768627,-0.199969857606473,0.219335418796505,1.02860998829492,1.58557763239127,1.45100098957465,0.765113357798484,0.0451139665689531,-0.275983583379971,-0.137943100750631,0.182593477066056,0.335935809112027,0.195290615860183,-0.0537278636608705,-0.129999307591857,0.045491294412072,0.279511208612703,0.278031970090844,-0.12903313549122,-0.830128834580191,-1.43606491470186,-1.54189137145556,-1.09265189872366,-0.45869007438903,-0.0832617223316371,-0.0642212461108281,-0.0965791489641658,0.189570509710671,0.814796806504376,1.35891704028736,1.35200630679433,0.788127898737514,0.151417643421196,-0.115901908700446,-0.0451438515171992,0.0406125569750178,-0.00709105896513178,-0.0556347261396322,0.0114538601988929,0.103090604467662,0.0904006308038742,0.0309147538529311,0.0917152974911978,0.261471044125904,0.255761429271799,-0.18567550816203,-0.916351449501527,-1.41109438637773,-1.26284055225513,-0.626973231431105,-0.0953537768512525,-0.0912758928653057,-0.416566270690833,-0.462136981832045,0.112049544345452,0.97925717411627,1.48720198686124,1.32258067228263,0.737819794248599,0.193114590472325,-0.0631732141732335,-0.0733637390226104,-0.0100597332419659,-0.0102059264410895,-0.0813058248281863,-0.119313087317253,-0.0516162669748069,0.0554203206416258,0.0962260758970021,0.0963070816452224,0.163397850334631,0.262201450237596,0.175371029453707,-0.234869955457965,-0.809215309855115,-1.21411782752309,-1.2383246222309,-0.927246695016663,-0.497283318454787,-0.176760609473649,-0.0509401073363253,0.0236618007692848,0.295007925968436,0.817204384308431,1.31030458150846,1.40103179094513,1.00336136901594,0.411748754846608,0.0141673732416729,-0.0552766818364273,0.0214199738386099,-0.0108263726900615,-0.208990732734366,-0.399350669153014,-0.384881271660241,-0.154523454701935,0.119828160689406,0.263474552549448,0.235115165072851,0.0850745359135527,-0.16408053471281,-0.526508328670165,-0.930577508662121,-1.16184354201132,-1.03241472659836,-0.624651587444922,-0.263317535762765,-0.155223761581895,-0.120396398417933,0.186272713502581,0.802252677771523,1.35490922529889,1.46572303601101,1.1326202563024,0.660398562072667,0.317997705505998,0.136843208232856,-0.0126106045367078,-0.219552151327102,-0.417640809320775,-0.462207062682356,-0.307488715027793,-0.0655867208095824,0.117370224894104,0.175928706961896,0.0833410803952325,-0.213620293955939,-0.705377006647624,-1.17973134716459,-1.29633256386402,-0.900038127219485,-0.249198838360256,0.161070701991849,0.0850035185664735,-0.177243467656388,-0.0635109434437042,0.622321828223998,1.43848886320181,1.73162564541687,1.28576176549578,0.485193433076084,-0.106517159880933,-0.235197361541535,-0.0595178322730073,0.104059157373122,0.0751120536912333,-0.0955039891754294,-0.23739474505825,-0.241404723708982,-0.147982446221852,-0.0797079431945174,-0.131150822999187,-0.353907255249568,-0.760863520103929,-1.21504485831935,-1.37877750010988,-1.00095014046037,-0.299768593807504,0.173668249417311,0.187073797013227,0.133653468055784,0.482883187467272,1.10499041297105,1.433751426093,1.20648670315551,0.717503349486117,0.3354297133163,0.0876862223336742,-0.159550962606763,-0.358483426527718,-0.338200348105482,-0.11173484191458,0.0821577489046139,0.0653798527125878,-0.074718611076029,-0.117125183954074,0.0170280165326638,0.169041784375244,0.0939730069485898,-0.32647846252971,-0.96136976737282,-1.44077551070524,-1.37282064908906,-0.723414540262732,0.0409965943818279,0.371210887072153,0.216640872467981,0.0433249875540843,0.269077815308093,0.83076328978252,1.31098087764169,1.33279931849293,0.822635887965089,0.0611663954307307,-0.472023421465657,-0.458695370606084,-0.0519800589105302,0.250822772646796,0.131705842208403,-0.20523781775798,-0.303444002827099,-0.0237535518293572,0.292556787530168,0.26938465582647,-0.0275586770284079,-0.196172672802086,-0.0371082238404388,0.168731348297267,-0.0172170540688846,-0.656235110665291,-1.28751957724662,-1.35732166732492,-0.80748297484654,-0.160194753620201,0.0696168825563079,-0.04891337512395,-0.026207344588227,0.397292034702484,0.977400865373142,1.30636829499898,1.21075261792761,0.796670153038712,0.290346517332998,-0.0955129743434669,-0.251577999773465,-0.216322734097331,-0.120226468732265,-0.066212974784824,-0.0546405525189396,-0.0101747452792268,0.110017844165742,0.230681990990366,0.222728650816302,0.0726587150803873,-0.0782792287959155,-0.127794692287438,-0.200075462579493,-0.527391548804382,-1.09521825034315,-1.4959905046618,-1.29626368499877,-0.577267697310249,0.0679881662606016,0.203274399247174,0.0640629606866002,0.214524375480342,0.799279030990611,1.3772346820825,1.47300927847573,1.06412989840655,0.489659973533506,0.075746761488569,-0.0719696160924422,-0.053705694068287,-0.0533420075659928,-0.16169276248358,-0.275332501120486,-0.221349814421483,0.0177218221781444,0.266680692045195,0.329353998744147,0.138004948359924,-0.231648375202545,-0.630124133308269,-0.94331416506548,-1.15094751764245,-1.24195503461707,-1.12539493486163,-0.741321229127443,-0.228309847924373,0.164909160871587,0.361491514051024,0.544969911108323,0.907754541462345,1.35952701340248,1.55483741834213,1.23321634764672,0.519899745642866,-0.130797070508342,-0.323281322108035,-0.0824444453402961,0.187157213525656,0.133991142137558,-0.178899593649525,-0.38941537088015,-0.268684746285835,0.0489505697616555,0.262336474215362,0.220685816900926,-0.0330451071563479,-0.444647402287054,-0.969000078261639,-1.37402180958236,-1.29466620578245,-0.701076271454723,-0.120336794904784,-0.08108345350586,-0.415313770759158,-0.426495425917418,0.235618807664182,1.14249700328303,1.59891335301227,1.36404145430086,0.750730538573808,0.191282090850726,-0.109299560453073,-0.170320380422601,-0.104263938709974,-0.0470000494710335,-0.0894402152735342,-0.190308579092088,-0.209078358558134,-0.0676203738863011,0.163662346768251,0.342733978163686,0.361724086242184,0.205600185455344,-0.00277475341745807,-0.0511097451880601,0.136887023980527,0.32626694266149,0.161110937981688,-0.42273594205501,-1.06330459836783,-1.29687305412791,-0.992327205633313,-0.475783013572464,-0.228705665469885,-0.391835588897197,-0.56616685061705,-0.233090524040857,0.606354360616965,1.36909814580697,1.51038334518307,1.05290733384845,0.456024232410919,0.115714814941961,0.0631777596878931,0.0544224583147487,-0.110361015286283,-0.349079943816038,-0.413048405861028,-0.244722747451489,-0.084809687363215,-0.1307932601662,-0.241638401314443,-0.159234015407169,0.0858711818155603,0.205383520227165,0.0505009324329549,-0.206299722134344,-0.294427225393783,-0.132646710798086,0.124636096508719,0.268538018226825,0.238647577727848,0.149457421805769,0.131660494947884,0.189941288087249,0.241346400966816,0.242953247812653,0.202541175717786,0.0757596734792188,-0.232148789941718,-0.699359858688129,-1.09140430233182,-1.12165605675857,-0.73478307696585,-0.210457601053793,0.0814626867512691,0.0771858375645701,0.099104388789672,0.455339539843444,1.02519943282943,1.34726827707448,1.09864876943547,0.432385564152272,-0.155064379506687,-0.299966625668166,-0.126843192403137,-0.0664348585663373,-0.301348913563501,-0.532619835396847,-0.393573172676527,0.0460193939486403,0.36517384533053,0.314170843862623,0.0606099017879423,-0.0914096823340915,-0.0493128410231837,0.0669539634043757,0.132785364750756,0.121729713640587,0.066766613826344,-0.00100955683297291,-0.102485802701433,-0.324282058696226,-0.713150037038751,-1.10870120929524,-1.18283928575825,-0.784257092139586,-0.198009100079042,0.120554202637102,0.094735409183394,0.119705353948184,0.521969092839531,1.10770008526817,1.39795937758213,1.17436489164358,0.628254365526887,0.0912779883996485,-0.202999768137463,-0.192436737316421,-0.0140722635744851,0.0865023430634232,0.00502347712749455,-0.106819545214048,-0.0578956811394821,0.127161373587874,0.254161232074404,0.200324740198073,0.0286635761385549,-0.129180135408541,-0.26814933583937,-0.536681866093331,-0.991154515107008,-1.36306043869902,-1.26920422903229,-0.72147948799271,-0.205271907005793,-0.0904734636946271,-0.158938132315885,0.0643807593224647,0.655633324616888,1.21483554321972,1.36969430815395,1.12773680554762,0.742663940385948,0.419268649695314,0.193436287235944,0.00686923371061969,-0.155636011420114,-0.22420027466231,-0.158505902043013,-0.0499946809052273,-0.027573088965645,-0.0849861431999277,-0.0872725238745048,0.0333158171735922,0.146934720248836,0.0588957448264628,-0.241772247681541,-0.576736448942101,-0.832618719079882,-1.04299413187899,-1.16546749771781,-1.02360438045315,-0.605093516328431,-0.18326816652912,0.0360499128316684,0.20020782989173,0.556132377210574,1.04707311700551,1.35383540967081,1.28277168779319,0.952969845333648,0.596443812376424,0.308606168434379,0.0575078243695287,-0.160132370095037,-0.282914361662763,-0.272902374972081,-0.159806031601949,-0.021234398302747,0.0394671672613168,-0.0377051213336309,-0.172991952841805,-0.19815607574936,-0.05356879033245,0.134064573849693,0.188293875861045,0.0220418854456338,-0.34435954387465,-0.791585093086311,-1.11411248408506,-1.13047403643085,-0.844036604120375,-0.460429181190773,-0.197029544493857,-0.0731165626991936,0.0855027414312276,0.432824811147771,0.919942265312266,1.32227946367879,1.41485825515247,1.12998501623669,0.603593344479207,0.0916381068458588,-0.200680678136662,-0.243858496899584,-0.154374685913743,-0.0776219086181061,-0.105173991036398,-0.223851846159933,-0.297740430927557,-0.182957742315193,0.0767550690457684,0.246648760779675,0.165256398485908,-0.0614609550171109,-0.224031175017516,-0.310070070386926,-0.510133904370542,-0.908854164236421,-1.2755206186723,-1.25348544107528,-0.768433452218005,-0.174450476204612,0.114892808492622,0.130737195182387,0.312112418466281,0.890755315600842,1.5134258215714,1.65507169143582,1.25274008227217,0.705226761047722,0.3417522620097,0.131239641197754,-0.098101021777291,-0.358588319899669,-0.498215958619037,-0.40678249936001,-0.157389625852938,0.0451107439183763,0.0379135718701488,-0.149631274619562,-0.295384868991341,-0.188625081359372,0.0910053118850395,0.148168450048236,-0.331829016232642,-1.12814857897458,-1.56929974987335,-1.20733492121817,-0.349032358779439,0.248541916315909,0.221608920019829,-0.0302302473966787,0.117495280737105,0.765551269193167,1.41370728854256,1.54324737026945,1.12096885973126,0.517660057529205,0.0691478729312758,-0.164399150186861,-0.267032589882307,-0.279127284262239,-0.210183424981897,-0.123754473428505,-0.0936983095826096,-0.0985188813315537,-0.0460699203746603,0.0781331443335611,0.15520541558216,0.0666308273702398,-0.180826684469407,-0.512752766470304,-0.871003375334352,-1.14909012631325,-1.16174063521003,-0.840460406867114,-0.396587005346694,-0.123868210623238,-0.0496326854015387,0.0883166765258829,0.500334782468329,1.06317241590387,1.41181700523849,1.29088790498669,0.804839460123748,0.315439501866965,0.0846290768828086,0.0434814048277591,-0.0474466500883025,-0.248351717125873,-0.365130269332032,-0.244400370489718,0.00152401125273619,0.157212127181838,0.169401378216607,0.131135483036047,0.104317462392139,0.0901768559046733,0.0898530432170924,0.0408894925672625,-0.243231679298605,-0.855442561407384,-1.47816255643302,-1.52443960567195,-0.803292292103662,0.10063723712482,0.412942378972989,0.10336784046981,-0.0950313377572842,0.353648500134073,1.1490013678382,1.58738451021164,1.32788132651947,0.591437746122245,-0.148559214640018,-0.525818849902158,-0.489881897464435,-0.282420394805249,-0.177766129326729,-0.232653505322175,-0.2964258187641,-0.215393740189908,0.0070616309332088,0.215901960933496,0.245440373801617,0.0794179980716863,-0.126693223632949,-0.209106793707325,-0.168503295100536,-0.13786706589396,-0.189295960979222,-0.246821514850205,-0.234675757999469,-0.237994787161827,-0.379602353831665,-0.534960990804395,-0.371304726316935,0.190941980259944,0.729133128714373,0.769340836962856,0.394948085950296,0.145782416411388,0.336852089179821,0.708627401135221,0.768924629230614,0.321865840893337,-0.352150847103897,-0.759155759582333,-0.662800124117452,-0.315573816044142,-0.139978576186571,-0.212035522083567,-0.237353134405057,-0.0325985529457961,0.211823064130531,0.235319695421761,0.0639857502170613,-0.0822250979356118,-0.0967377809464601,-0.0257030138727075,0.123407417788112,0.406024439572146,0.740118257903627,0.848476639497876,0.517806000816763,-0.136414556905678,-0.730753054869377,-0.9271742369549,-0.70610963474726,-0.388372411563815,-0.341718780056573,-0.576900164589673,-0.693386871905456,-0.325532224235209,0.429401337567801,1.12064902742519,1.37913444163501,1.14067667147395,0.569654386691901,-0.0562127490365871,-0.438483997766112,-0.432206404995344,-0.188014531680139,-0.0210174288286703,-0.0788479095507142,-0.198252134834276,-0.140300412148211,0.0920732648295543,0.265416645838501,0.231082437766435,0.10344862920266,0.0545400224204148,0.0218025286609471,-0.251694453932279,-0.851427721343297,-1.42407364094381,-1.41677317081959,-0.702698269082347,0.144989265039159,0.431843702340774,0.149323893043491,-0.047877465104774,0.335506901175525,1.09122711043048,1.61670418587365,1.52571319273537,0.891600393775956,0.116441188872798,-0.339036411956786,-0.289353563714571,-0.00637478357685369,0.0626000052471782,-0.188816217893009,-0.440571650713023,-0.402144324163942,-0.15851874183032,0.018899722300871,0.0328735852477486,-0.00587812532693928,-0.0109173195536438,-0.0415353539066608,-0.204473186630206,-0.520742660056921,-0.877819865657989,-1.05932704166861,-0.89009301420482,-0.46045331482931,-0.126203765131158,-0.109275367652531,-0.161863046423847,0.132500024295297,0.7451699215637,1.17137031196483,1.05870888979347,0.601929284508989,0.222258815052965,0.0826954066358784,0.0484236249435714,-0.0336123353211655,-0.163288611313781,-0.237220868990291,-0.174689216166013,0.00191111718630831,0.174828028107783,0.2209714452871,0.120279286805789,-0.0143474462192624,-0.0344048672656884,0.0926192797672955,0.230933501622738,0.186183905538592,-0.132511727024698,-0.638431611699465,-1.10725513937846,-1.28812988860821,-1.05834432989283,-0.560012053627248,-0.154888537444495,-0.100640732795451,-0.221803357517719,-0.0537131688592129,0.578824934671415,1.27349787685004,1.48481098503007,1.11515964942704,0.522462754650403,0.074053804552014,-0.126503865664666,-0.162693185852946,-0.147047035843751,-0.138460475142111,-0.113912574742207,-0.0136088751659447,0.147895328811803,0.249198719265773,0.198619797843033,0.0761709108816117,0.0550771949105136,0.174016880748358,0.276341455602965,0.215276682686887,0.0323393633591222,-0.145799892556546,-0.314879172790141,-0.563648370524445,-0.844362996969614,-0.930675172615505,-0.691648754094552,-0.296352850201222,-0.0226684227944446,0.0710177970175707,0.167432387849094,0.434532978048893,0.848375226325237,1.22082905615427,1.31212202962008,0.97839816582584,0.333959076316302,-0.253516521930446,-0.459823530142254,-0.326044340990455,-0.196951788273193,-0.307681994192,-0.517283723598984,-0.529063970699517,-0.273391627638034,0.0385195077860028,0.123866289321027,-0.124120310299549,-0.585906654713944,-1.08266921555429,-1.09196543831213,0.0162745543326009,1.25229030200272,0.712689742775788,-0.741925780509682,-0.420681759869709,1.40752823957829,2.26313867970605,1.65666006199237,0.796682924799545,0.262661872146502,0.0105254987469141,-0.0342082769092068,-0.0228863432069653,-0.143912417312403,-0.525667178043251,-1.17055659008972,-1.88281420867747,-2.31719684347734,-2.175790388667,-1.48056831893722,-0.650152114860505,-0.150680931564681,-0.0225154478711988,0.147673294606513,0.728414427986878,1.58748607098347,2.19711803466289,2.14733155526547,1.50418755679049,0.702676836142581,0.147688173745757,-0.0721409174753214,-0.113095734930412,-0.1070343290634,-0.054852840504933,0.0422717424172643,0.0884796602739795,0.00133502465096301,-0.145372283234647,-0.163564945865814,0.0246619880081577,0.197533103908166,-0.0599099955421341,-0.934876677002648,-2.04295848520825,-2.63075718397956,-2.25965294971238,-1.2765313461623,-0.486900290252431,-0.325673964114846,-0.444159480606516,-0.163900760081077,0.74883297799427,1.82925213242709,2.37048996993238,2.05585919663559,1.1689650991221,0.279672572227689,-0.208660673751863,-0.236057598543106,0.0408577565555739,0.407678696676938,0.651510896465791,0.64725749567307,0.488990339670637,0.4309519016977,0.580771727591844,0.714244302019192,0.500335770872387,-0.143885604138539,-1.02041496590505,-1.88870680440406,-2.56902151938013,-2.84518335894713,-2.51243581168785,-1.65734113551085,-0.732631627824313,-0.145438109377238,0.18748716426053,0.690909888617252,1.53854680479216,2.38615642018026,2.74214765674933,2.45347566324678,1.75381963596866,0.973762090200722,0.327318633371499,-0.103903264811172,-0.329523267919795,-0.410999897054988,-0.395237505280256,-0.272910743516058,-0.0344102889450982,0.234406858193542,0.358400252749213,0.220234070410314,-0.0947563994591804,-0.350342062704773,-0.423308796467787,-0.513459914712387,-0.980971210032961,-1.87355096938409,-2.66345838908383,-2.61611752809244,-1.53340895646144,-0.0821892523083034,0.784490348689232,0.80514293257878,0.65727023427939,1.09894824056427,2.03278251758631,2.65322299675309,2.39890610785802,1.4563121294494,0.379269023250217,-0.42025670762466,-0.752200968372572,-0.607481557569993,-0.235898650622639,-0.0192831689196093,-0.0810650696293352,-0.173368127028055,-0.0676807821752417,0.0946883477804049,-0.0123712775080163,-0.431654227399509,-0.790826958370406,-0.716839361030578,-0.318021040750658,-0.0821536168089299,-0.26315772290417,-0.597565797389234,-0.745608186594864,-0.741795637295903,-0.777206381900677,-0.768352287414837,-0.478664909604355,0.0233897953997309,0.376833749360564,0.449144500853345,0.539498795115269,0.913385932492179,1.38780116988111,1.58785299546343,1.41411858584211,1.01983128341796,0.493892447627512,-0.137407310387188,-0.661025591857254,-0.746839510250923,-0.36116911375997,0.0928424917777921,0.190034102847217,-0.069300715242404,-0.341815451890108,-0.374181674777521,-0.220875224718518,-0.0900246559570877,-0.107403216442998,-0.241853092996825,-0.401252013884385,-0.568217871466673,-0.803797717471523,-1.10342803978815,-1.32086885854574,-1.29199215789951,-0.995492840676478,-0.559760836734337,-0.13435537530673,0.242426197922291,0.650409126762412,1.13480547878649,1.57568789212698,1.7854143583217,1.70342187344506,1.39447753018142,0.902363970554943,0.262830621165493,-0.337066745147936,-0.594470674294423,-0.399708932973059,-0.0302779960260956,0.0960033823249677,-0.128320282219477,-0.391884373898588,-0.342529036336382,0.0109514359030676,0.3303399441898,0.293043830832559,-0.183011908493953,-0.959305538289476,-1.73488786836287,-2.09753427477375,-1.75560850037241,-0.870817349276049,-0.0319814465258008,0.291750226232476,0.243674466455504,0.378672012279229,0.984213287427538,1.7568123483543,2.16509661373752,1.95495411986059,1.23803248078156,0.299768379764182,-0.501954546354774,-0.81573360473641,-0.553681686439575,-0.0596140842420652,0.183172041357497,0.0456412587792718,-0.166962930560493,-0.124715110779154,0.166497649072451,0.431103883196713,0.423629894532309,0.09719219496019,-0.439163518669513,-1.02782322519871,-1.52328702666316,-1.79372530697016,-1.72083359575225,-1.2774057128157,-0.623548212830456,-0.0246298312676051,0.401328736121721,0.784086118325579,1.27468045997469,1.78161489444428,2.02801154010146,1.84659502806178,1.32509984538055,0.666316631249232,0.0253655808977173,-0.477805892237239,-0.731294651503113,-0.732281270597793,-0.623928902289413,-0.525808478092564,-0.40510250289997,-0.203306444126819,0.00547253807268494,0.0980476917074963,0.0864601540474902,0.107602619102064,0.222227537402094,0.274578827126168,-0.00682263330068063,-0.715269061933605,-1.53731688058234,-1.88379895732887,-1.39591625038678,-0.383852184832624,0.374991220874371,0.433263431331132,0.179010489177543,0.345116149433721,1.08477785312771,1.78781694971575,1.81241093122525,1.15079386295746,0.309778007910585,-0.25254500687428,-0.443097737140678,-0.429801234918998,-0.395386071531556,-0.389955332408514,-0.338814947331018,-0.167233440343326,0.0739362073721403,0.220355606640364,0.150096444658072,-0.0748170414082704,-0.237324707701504,-0.156820911560729,0.113301654393838,0.256053997350748,-0.0804590110946165,-0.89965512063279,-1.69607472797573,-1.8445931526998,-1.23475465644647,-0.390613229713986,0.112553223154191,0.211682428728268,0.268902238775451,0.592905965600376,1.16754834378769,1.72656965515469,1.96135464491185,1.71672847161224,1.08792888722985,0.343734611328672,-0.23923920995263,-0.486260709544552,-0.391134888986405,-0.157008133078246,-0.0794201845273534,-0.277781989134153,-0.572884890120186,-0.68895992602204,-0.536020667458825,-0.247687619136769,-0.00781304407968567,0.0692949591513702,-0.0764523996118694,-0.459758994696002,-0.984393827551506,-1.41087332087421,-1.46665167412787,-1.06220304989782,-0.41689845528111,0.106103418183806,0.356874141435059,0.530586840987985,0.875791984848368,1.36132805660106,1.73923655872275,1.83367688918213,1.60166596213371,1.0064146664287,0.103003492197975,-0.739297290620095,-1.01479237911409,-0.645676411111825,-0.143213641160329,-0.0184302201425843,-0.215864797417748,-0.311413517619559,-0.0903878325450338,0.27448007995424,0.488646498886856,0.374746430301354,-0.0991487195906229,-0.841111273018303,-1.61038316090816,-2.04879688192695,-1.88816905668336,-1.2242952809461,-0.506806964561784,-0.103825834791818,0.0934872203149293,0.474888980562923,1.16308596127395,1.85781624479344,2.19613213500677,2.05734502533595,1.52778016916689,0.786387165143797,0.0706003836575449,-0.397412329252375,-0.524089719511418,-0.366505763553455,-0.0847506670833881,0.106299761918013,0.0598900606143865,-0.13315054216532,-0.199748695620995,-0.0164360591112888,0.206498473771026,0.168685329414576,-0.209009841815685,-0.815065865573787,-1.50738723076947,-2.04784196105583,-2.05267200233968,-1.3423482473452,-0.316497704091045,0.35151800486539,0.477052233217918,0.54853181505177,1.03796980344164,1.78606333434992,2.23836195783483,2.06797265146115,1.3614334450849,0.389548222116798,-0.535510720482611,-1.0888522173466,-1.10355180565493,-0.744039645467394,-0.373693232931095,-0.222975492902107,-0.22584573022515,-0.155749421206429,0.11559428021965,0.486758909211259,0.73491601855925,0.724169752701893,0.457021734627712,-0.0467976230218875,-0.764749317354179,-1.48447631010935,-1.77689343160247,-1.39640051955424,-0.683325525911491,-0.311205873135843,-0.51397132677343,-0.741214935453076,-0.278607889870432,0.854713315821935,1.83462556515369,1.89922343855155,1.13079918255171,0.27755744861859,-0.0652464280068722,0.0742039653965108,0.290668933623818,0.271924760097647,0.0117691247135271,-0.251058069944227,-0.248145676023748,0.066925195841834,0.456381151441571,0.629979683579703,0.522648304955127,0.305589117373637,0.144154493037249,-0.00621011250571982,-0.337552382381173,-0.926347098354412,-1.55949246814188,-1.86461913406991,-1.64699070573504,-1.09548207436531,-0.608056037275519,-0.369057993379082,-0.147989990996336,0.377693197770816,1.13700919810552,1.68375248246358,1.71399502977381,1.34970565211707,0.867469461417472,0.41005549374497,0.0666459067016262,-0.0371817106908202,0.0813106805357546,0.177467237554087,0.0607262091257353,-0.152950467521525,-0.218843725205157,-0.0919553576364735,0.0731936357027173,0.155898173003197,0.111605503058741,-0.164537776864885,-0.773323381232217,-1.53506117987689,-1.9577281652802,-1.66338846254848,-0.841429520740074,-0.14058121573282,-0.00867771942163217,-0.196373442877642,-0.059118783587587,0.656036762752309,1.50267219198422,1.85428477302457,1.54257758343046,0.889719236282869,0.289709826377824,-0.0662195069018259,-0.138904102408737,0.0449140257573351,0.331887999858177,0.44852195657522,0.261693900296325,-0.00736316588440148,-0.0155222350559144,0.2554788052615,0.458705341858667,0.29256267875092,-0.232306128905869,-0.937528619218215,-1.64576226425891,-2.11781055322212,-2.05660669152244,-1.39673427427905,-0.516277350916929,0.0554835159602291,0.190962822928334,0.287641224672652,0.776307563954236,1.61532293773308,2.32592564061967,2.42310446267836,1.77937220365438,0.699780308300237,-0.280176533524311,-0.755293027088543,-0.713624984813942,-0.46834622611246,-0.339165592814154,-0.407614912437839,-0.527180297292894,-0.493127468870718,-0.223100590502414,0.150269127100365,0.381636075224785,0.370914239689148,0.264219183371642,0.194095683893683,-0.0103568086474271,-0.63533424235797,-1.53804760313018,-2.02992225348963,-1.57497701525267,-0.523590763432884,0.190190668711348,0.156914735130848,-0.0360294729644453,0.370751328804165,1.31348121683351,2.03062882776994,1.97782420241586,1.29137382408073,0.452912925065592,-0.1781897517607,-0.492310501168158,-0.549134114906317,-0.474560005348976,-0.354119243873471,-0.19979669736482,-0.0423018668937502,0.0210201588485985,-0.0503521604766229,-0.143272548254568,-0.125563833625741,-0.0331997968656042,-0.0124190033625859,-0.101192723701961,-0.212760888152504,-0.367334264796414,-0.741621140348118,-1.30474769359785,-1.56761829053295,-1.05013840392585,-0.0115252482663936,0.676062912528851,0.569961535662288,0.247656348066315,0.551289380128256,1.46149849236053,2.1062657886967,1.8287738070186,0.884221467431607,0.0106336293428496,-0.399400118683229,-0.526085125307217,-0.680711677118696,-0.865502150094649,-0.833983853039544,-0.489829713439082,-0.0817677280303161,0.0607539624198738,-0.0834881194634601,-0.197551513791168,0.0162766008187055,0.499415918413373,0.851530985106803,0.659518855870547,-0.133560832151791,-1.11129565631998,-1.66158026079978,-1.47677234794651,-0.82431385757298,-0.27771827155566,-0.145817536472892,-0.197598790447232,0.0207674693207258,0.643531740446584,1.33873395179345,1.6908328976468,1.60027083268554,1.22791394188428,0.685885853607176,0.000897855073889886,-0.63920251428847,-0.873426040353661,-0.557787115475903,-0.0213247978196241,0.248900862362138,0.126976721045945,-0.0832014752628851,-0.0592945203094835,0.197277870966084,0.432915667207257,0.428882706472695,0.147719133759479,-0.343235018200239,-0.970243757484937,-1.59858911866676,-1.94283099999947,-1.71784021856383,-0.989914988087557,-0.249248728975441,0.062914226373689,0.0632911036084522,0.271953157647713,0.944424788741404,1.74537045468333,2.13060903503146,1.88130815664298,1.19262196410067,0.419881960995483,-0.120981982768416,-0.253404213611074,-0.0560530559358678,0.157342852727013,0.126129644977501,-0.0988674420570819,-0.266338808914531,-0.234926024734307,-0.0726360744583618,0.0943926820236346,0.189724619367846,0.136533322813536,-0.164839779953378,-0.725556428040138,-1.37946455689117,-1.85101025349353,-1.90054507362733,-1.45949917572121,-0.743102059264382,-0.179584170523046,-0.00857136128004391,0.066313622646086,0.572132228964096,1.54125944501988,2.33970840419061,2.34836360585913,1.6236837666338,0.742554434441648,0.152324102062447,-0.137835898367737,-0.30969997641144,-0.42303547804554,-0.423212843531073,-0.316644288520484,-0.195556844684849,-0.107256926147898,-0.0193602986946404,0.0528818695281002,0.0141526018709539,-0.130902986404179,-0.204623658060441,-0.113587490908761,-0.0768857535091835,-0.41559670055216,-1.12431124601092,-1.76351670952682,-1.82132843412248,-1.2005719572825,-0.353804182855165,0.137150596717884,0.156812778865353,0.132686096011343,0.475693847278533,1.10348601495752,1.60465347352651,1.6954358072161,1.38075989252407,0.822483769962387,0.231464019992699,-0.17590656538733,-0.283302051602526,-0.171518378005214,-0.0340641795018832,0.0259657439467409,0.0548496152088191,0.102450984365642,0.122814414750209,0.0756170998937516,0.0347712422242404,0.0929661116255582,0.185104929123696,0.100533873358559,-0.304926104426925,-0.950741400018386,-1.58059413374911,-1.92031070103637,-1.82154602171024,-1.3588723673909,-0.797171038400114,-0.357465914243591,0.0157816958124837,0.554057142973293,1.29575011173746,1.94659880549279,2.19758508278138,2.04882355114071,1.67205219639138,1.0949097033475,0.276109877116707,-0.564129767231664,-0.994669597518712,-0.852705713962193,-0.476279554204608,-0.315013918306278,-0.410889467870934,-0.421944558422836,-0.119887478199198,0.324254131355774,0.58613332573971,0.529076626885993,0.192407264112252,-0.39179154921907,-1.15814416883832,-1.81469599806819,-1.92380379961151,-1.34474916148273,-0.510070854069395,-0.0403526346957166,-0.0457540072833088,-0.0085457287956728,0.542136040111624,1.41936506239144,1.99621366826913,1.90130257053191,1.31031539301929,0.630008568029657,0.122507874634746,-0.149550849682414,-0.223176922360685,-0.183636626108944,-0.118316266105171,-0.0727187750354607,-0.0784873627407559,-0.155099916998506,-0.215183750735186,-0.091883378146909,0.20114403189519,0.335733751573571,-0.0285734699245659,-0.827392849455912,-1.59586604035827,-1.87798066998176,-1.56517438965581,-0.903692684832759,-0.283204519951875,0.0418271982477028,0.160562950940438,0.418836148320293,1.02272510083119,1.75228916258612,2.14173161559238,1.90784642239751,1.16722292607992,0.311751283161581,-0.282169393039539,-0.495911511703729,-0.483597969531177,-0.449544181529452,-0.446576560978201,-0.41121223874091,-0.304970132706148,-0.142183640822068,0.0555869045613072,0.245371245816241,0.345795820924434,0.309585281767502,0.171168907001443,-0.0543484837686798,-0.461912480274285,-1.10681671502805,-1.74957498429628,-1.91349603254109,-1.35360843273772,-0.417469277986202,0.253554593438789,0.420445212337963,0.461582369767524,0.822972324360078,1.45316337911376,1.90392210582265,1.81681248927878,1.18236457531509,0.279505483948825,-0.490803499778993,-0.818425021725252,-0.684633992657144,-0.34928947810586,-0.0908021206189063,0.022036163698828,0.0870057711029155,0.171915890340258,0.244990895347172,0.268052947833444,0.256507148432757,0.23221559989934,0.163205172312473,-0.0611884036105943,-0.580377605836223,-1.37107677948069,-2.07692257487085,-2.1948260685791,-1.56397557183044,-0.595362888556705,0.108770046174496,0.347259081714696,0.448774727331253,0.828720893549418,1.51574528132999,2.12931528282058,2.23252651943433,1.67877205029399,0.712130289546169,-0.201956345234141,-0.704182524643628,-0.773088503411277,-0.635773873540467,-0.479112934081171,-0.318959698661971,-0.123055720475807,0.0667939368011976,0.17830175665481,0.196904875140523,0.17253571548045,0.17433792296369,0.217348761757923,0.168286840042893,-0.215254545764586,-0.99862332934062,-1.82169074898642,-2.10738094294302,-1.61943345084474,-0.746900137063095,-0.131973704082344,0.00158938502362571,0.0613611414476273,0.550124584392226,1.4134833877318,2.09388570734064,2.1743147073509,1.73871953948414,1.10645908385379,0.482559907873402,-0.0376677483275733,-0.344209569206598,-0.380179131393971,-0.260469858069554,-0.184027376783043,-0.229952226997513,-0.312040343111373,-0.323792586044597,-0.252365609447219,-0.150083790601923,-0.105913274833673,-0.292474963548372,-0.871782363835326,-1.67455678405501,-2.11538728375718,-1.72972031563771,-0.773508117433612,0.0066177136184642,0.23372561033757,0.258726451935349,0.595992343439227,1.27020244505109,1.86975273519237,2.05294864489406,1.80510465015017,1.29308944407858,0.677687820827963,0.0910172826600263,-0.33971031613656,-0.528275162407578,-0.485921284884298,-0.339261151178582,-0.257879793853638,-0.291970929944466,-0.297936083314949,-0.122664300055787,0.141300259677968,0.188875623731492,-0.193803989292998,-0.91904252230518,-1.64327218623572,-1.94297551689024,-1.57121876835475,-0.739864464646793,-0.0613790981186159,0.0566498115493408,-0.0587154315909057,0.296604647075034,1.27777247003091,2.20861167636071,2.3329305986956,1.60687241131726,0.612698796855334,-0.0892174508719978,-0.336032227854534,-0.264286472574729,-0.0943385977061127,-0.011133993448189,-0.0854204903667309,-0.225733929790827,-0.256868663973666,-0.09807470971802,0.154660740651374,0.332339488985828,0.323655297472006,0.0902325251867515,-0.35466075195766,-0.913007345555553,-1.39035556532685,-1.58543104199282,-1.42351667225372,-1.0165975531436,-0.578294754843938,-0.242905639248502,0.0411493852704762,0.435343229015702,1.03148019788987,1.70608373872032,2.11295193137542,1.89928537953047,1.05112410525528,0.0125473802469703,-0.641777742284612,-0.690098708970993,-0.39750912581264,-0.184507823079202,-0.217712204347015,-0.331487962630521,-0.274081881143105,0.0279579533083176,0.412294902876042,0.635145486701211,0.584566947701534,0.350079078328919,0.0921676840850872,-0.133082554418098,-0.429292261484601,-0.93935957844484,-1.59145294128949,-1.96713211697938,-1.62637145713456,-0.69276367968064,0.0936665973169753,0.163568007544885,-0.153679420025533,0.0128508874634799,0.990147225359999,2.1030796808572,2.39442743317006,1.61867178042485,0.401310293968389,-0.448308775756618,-0.608195442767988,-0.312330878623306,-0.00137884053800232,0.0267809279058161,-0.194538820062306,-0.338894089497374,-0.117256113972626,0.349354048415118,0.603660082774135,0.387877521917082,-0.024029024752245,-0.172010407324709,-0.00226884729700123,0.0491684547420968,-0.435667830928888,-1.34759257613992,-2.06142614258343,-1.97935981325214,-1.13240235317927,-0.205376161928459,0.152364894529114,0.0185118682373012,0.061887218860625,0.715168877076686,1.65078650980935,2.15470598743745,1.88255815684844,1.11549376228259,0.359879883763008,-0.115255205717191,-0.327443702576302,-0.361420790723957,-0.266313105175062,-0.128900339725983,-0.0784008303194727,-0.138775291176213,-0.161023858634898,0.00401387524287367,0.296592724414682,0.4815408767489,0.366328311894884,-0.0796141441885517,-0.773714295333353,-1.53712623564673,-2.04208548172808,-1.95543107590457,-1.30355150528369,-0.560002067649126,-0.163555554517583,-0.0182049610275151,0.332171762600938,1.07427356904707,1.87232655719369,2.24600754980872,2.0170297218895,1.35556409065767,0.573777422893291,-0.0412322931946455,-0.335423114091123,-0.360772123273863,-0.304251783599497,-0.288532284093414,-0.277217979901013,-0.190901512674776,-0.040540477226715,0.0951205133631933,0.151667388316092,0.0758634184768078,-0.213550544372283,-0.775922265142286,-1.50375718070613,-2.03334105082312,-1.92945576627883,-1.12919379563705,-0.161277240184366,0.309717235973039,0.218952034665762,0.177213502057245,0.714676762798446,1.63809699551848,2.27749049495756,2.20384741245794,1.52592940848172,0.626776467957456,-0.138532759032475,-0.537549848868188,-0.526316521373459,-0.305372646806987,-0.16924849397415,-0.228058287670849,-0.344763293877789,-0.350341285244249,-0.220312190666481,-0.0364851030289901,0.0858906113944156,-0.0178127081475935,-0.502327500583174,-1.2913896131973,-1.95497449405106,-1.97070511619493,-1.22588341220937,-0.217697187353008,0.393248452290272,0.464001200808274,0.471515859060838,0.890999034466698,1.63176878869809,2.17313729331755,2.1107881702284,1.4631818695008,0.564653736370511,-0.195873189388458,-0.566638629997765,-0.51361105003641,-0.221815188228329,-0.00960140882705044,-0.111456295633869,-0.441041255766336,-0.637057962816948,-0.447183276374209,-0.0128374046138304,0.299721057707018,0.259069858914001,-0.12305612132994,-0.714970972285504,-1.32820594492236,-1.69524783371797,-1.57563876816301,-1.00276373706457,-0.354339527588027,-0.0213250357915553,0.0259575034247988,0.219717610377653,0.869549009573098,1.73723590504605,2.23137048417076,2.00032887155511,1.24485520657559,0.443127469592244,-0.107376791285351,-0.396939774530422,-0.493027558309251,-0.422780123791068,-0.252945550951612,-0.116013654712406,-0.0844792115727806,-0.0846835353818393,0.00500572333083822,0.181622040667566,0.290539265918332,0.191460225484063,-0.100583271267238,-0.495324758082396,-0.978573255725278,-1.53808436524925,-1.93890918747149,-1.78987882951725,-1.01654201309124,-0.140583560612853,0.207032651239733,0.0731200501615044,0.176062435511697,0.972069564050776,1.99933189060078,2.39137478841804,1.86330383748976,0.923900456905617,0.214053432445489,-0.0793249397094503,-0.148834442090228,-0.177927271055332,-0.185107525829163,-0.149374903286226,-0.115758945063296,-0.131876195131202,-0.153003277984107,-0.0775180101573811,0.118259433660176,0.299653272929493,0.23358851023675,-0.252428934835114,-1.09976217165505,-1.93906741413732,-2.24764498584013,-1.76892255372535,-0.842961438071624,-0.163825742802377,-0.0622762118706538,-0.12024472774972,0.331764827218912,1.37452982876715,2.34249084265173,2.52454324523149,1.85346648357836,0.851264544651807,0.0730220050897633,-0.2722161044013,-0.295477903880757,-0.232037200238525,-0.262930679761031,-0.384752691412461,-0.419229934607675,-0.226945027455121,0.0925943707165724,0.299646430522562,0.2842218594846,0.102586756221802,-0.243180565642965,-0.853689720336422,-1.63992734953116,-2.13786734169978,-1.87428925345204,-0.968350910371296,-0.14284546459192,0.0512705311745763,-0.114835321166099,0.10258835806697,0.997260117351397,2.06583881739044,2.55447625438951,2.16328664197521,1.21758995348849,0.311267551532085,-0.160948346657529,-0.209836294802873,-0.109699711540034,-0.111235710659366,-0.264876674878558,-0.438300305134599,-0.452442235295504,-0.226235239782846,0.141552541762766,0.39735257105963,0.284925541238361,-0.263382395627596,-1.06617345451667,-1.78677503504125,-2.06107011455851,-1.67777077222303,-0.838795510170998,-0.144555698742723,-0.00566410037122738,-0.0823710622190214,0.333961451450541,1.33679659393852,2.19209450249649,2.23036055585017,1.57829584204069,0.823750370534874,0.293389929590063,-0.0767933758934686,-0.378302661184494,-0.534727326796236,-0.447116029309462,-0.178548906473876,0.0650928482905321,0.134652434951707,0.0910163178904675,0.115820795448865,0.283822515603955,0.48394611888196,0.545936438567229,0.352478807076895,-0.167066097336303,-0.994877505482091,-1.8664236281255,-2.27646110195838,-1.87487013503449,-0.915996662481203,-0.139069935489642,-0.0331018598567309,-0.284266489433629,-0.135432223485646,0.70772218007483,1.70979420739122,2.07995961512269,1.54967246315565,0.53003957597876,-0.337471755439855,-0.684585978925606,-0.576047651153851,-0.3007585914679,-0.0630181229703733,0.0983512697064374,0.176069202868143,0.168839617575024,0.192314427425274,0.384896117310268,0.634654608802544,0.627008937795069,0.280725536724783,-0.0563631551770281,-0.00942379843266125,0.331103461532991,0.45268110984431,-0.0701995685528796,-1.12253641670698,-2.07027168796216,-2.20090778065328,-1.18782827849698,0.405213232189493,1.05088724708963,-0.0908743705921287,-1.51689746610381
