-0.138797770231403,-2.01518154117356,-1.84544650519867,-0.36059027136982,0.913912360345913,1.37221578652471,1.24930971200526,1.00926380211505,0.896992082530198,0.887964578788122,0.920879859468978,0.958289663111384,0.915182797736895,0.737024884501203,0.507708929515294,0.353309002841867,0.271547939301589,0.16568492487143,0.017128040919659,-0.0930086672259822,-0.127320455192744,-0.15160941352989,-0.229788900134649,-0.33831592617238,-0.434473496118708,-0.564424030545912,-0.817730307045366,-1.15021305856017,-1.33333237826154,-1.1652156884631,-0.702129738133017,-0.216105703191984,0.0400535286311222,-0.0159807584525081,-0.285460036900576,-0.536359089641262,-0.537295966576096,-0.257550562755806,0.0848139412148531,0.23345226161591,0.132504303585478,-0.0586985309878097,-0.131194101658791,0.0149170629119305,0.311800865278742,0.586838838048628,0.719435084953773,0.747218470990628,0.792468748526052,0.901594301290759,0.992435635739801,0.945359483863122,0.730061387841913,0.461072934489803,0.313065933140174,0.336529364264467,0.380798060652169,0.266120727506297,0.0135251341850096,-0.183806672021643,-0.223870335551053,-0.229360860070062,-0.365335014049769,-0.606437395082239,-0.783523433749902,-0.844125613886403,-0.970054603022803,-1.34936732850107,-1.81534386328687,-1.8565974622119,-1.22997276173302,-0.543837508352555,-0.749455689444674,-1.61948278431635,-1.17826291482624,2.15414030477612,6.51115832920819,7.25622634724176,2.25799175261725,-4.58344860946791,-7.14295762628687,-3.87861778864327,1.12479873222138,3.46216437070348,2.64679340390944,1.03355436020543,0.485789753357438,0.982082686804994,1.56192886915643,1.61524192735028,1.21303157165438,0.705658327719854,0.346371630208222,0.239049044478485,0.401021304647294,0.735796179688271,0.995402224299093,0.907226944238071,0.414871159000338,-0.249289819360599,-0.792789739065341,-1.11630876208834,-1.25554314800845,-1.15115683798392,-0.692082875915437,-0.0545425347427975,0.210251580954593,-0.31981568343499,-1.32944878817956,-1.8928112095681,-1.4359292953339,-0.514491721946254,-0.309472900801856,-1.20955640808243,-2.22377898086165,-2.10128602751248,-0.773442875824758,0.66869963579205,1.2320488586398,0.894558295286078,0.324984029043285,0.069993427692731,0.118977692009863,0.139957224380922,-0.0311845441847734,-0.238626601611436,-0.280395641970683,-0.172340226211348,-0.0827073507783989,-0.104197866645817,-0.180139871887938,-0.222745614812803,-0.22909160857309,-0.259563034105195,-0.320482583067545,-0.291922025122271,-0.00168177596049499,0.594976737400307,1.28222194255674,1.64682297249326,1.36533325717577,0.515267625351015,-0.414469225583851,-0.887116923466501,-0.725589762632591,-0.19649220226565,0.258972036705788,0.381227983996646,0.243197666969032,0.110738245460927,0.185925102559885,0.459626296371241,0.743265449341213,0.821831930089707,0.626027855700663,0.293593210713493,0.0558724581394261,0.03520707682183,0.11292635862279,0.0106880124671924,-0.401121431928264,-0.861687798895529,-0.934959753666984,-0.536253071606289,-0.0936522852254343,-0.0795795024190332,-0.499371743805395,-0.933900659981907,-0.965687269272994,-0.468733305948928,0.371454909949646,1.13745548602622,1.3462577902392,0.768109534396468,-0.315437669154241,-1.24693681934068,-1.48004604278001,-0.983506579443896,-0.214280813318405,0.288621972602034,0.334400907917827,0.16671687614049,0.149522106697235,0.40072565905631,0.75230730516328,1.0039514508177,1.12138910942961,1.18195667953914,1.21177897787859,1.14809291008022,0.948774412387259,0.676308770481595,0.446120335687896,0.315457949557808,0.242195071104849,0.150121099483893,0.0266203488593398,-0.0657633014195592,-0.0875579522766214,-0.0926268089400885,-0.161845500509647,-0.310093708165306,-0.514109401386439,-0.774079963369509,-1.04658487081968,-1.16702958960869,-1.00667706324592,-0.715277375100008,-0.610289761037389,-0.763687351441986,-0.913431410293574,-0.882891069044456,-0.821715082460074,-0.830492912030458,-0.6218169267721,0.0812927460002599,0.945039062531282,1.23963375761143,0.690012918314091,-0.212251640672165,-0.814656429238175,-0.928167632096328,-0.743113931813752,-0.423360774647064,-0.0378877277967147,0.260556817663228,0.313553331639884,0.259074955657955,0.494711551694495,1.16511056622827,1.82907933148174,1.85599656872478,1.14815551010509,0.310155904929341,0.0363617248836888,0.409929492740632,0.877478432342035,0.863269071691973,0.315714717000706,-0.329645206457177,-0.60927326147684,-0.420805168434914,-0.0616090311086628,0.0450812513709516,-0.269638672111729,-0.7473006875146,-0.971102665612008,-0.836726540329822,-0.629429838376318,-0.594448127474032,-0.64273048015575,-0.619162225562428,-0.631951689042381,-0.828101288209199,-0.950844083439794,-0.494416820602634,0.568881743762511,1.46219195245254,1.28646753861534,0.0455013453587142,-1.22173450178339,-1.4833986544707,-0.764022059512398,0.0481822000859427,0.32212161326261,0.270984465779182,0.401042746358094,0.76842361376677,1.03279113987311,1.02418619614969,0.933445962847166,0.960400444574151,1.01608456712338,0.871598670110129,0.501990996210266,0.172467522031106,0.151447321827504,0.373440583412948,0.474673704082119,0.211997601295807,-0.235780575049319,-0.484379961895569,-0.403786889944988,-0.223222694734139,-0.193351323337504,-0.320886814861936,-0.50234958433996,-0.732875201687647,-1.01577116754809,-1.20144351038929,-1.13433700874103,-0.889609900255175,-0.656562496159353,-0.428314565859159,-0.0117752092530877,0.630355065903148,1.19134986188045,1.24440803508501,0.629222760540739,-0.377077789701847,-1.22484917461234,-1.44228208536684,-0.935847501287985,-0.0475292664560049,0.696453477703221,0.981667072890322,0.912796673836559,0.835956689444787,0.963432720217563,1.1997717387945,1.32102016610171,1.24388182437447,1.07010697418442,0.919717080141772,0.801785789038446,0.663783046921117,0.50691688801683,0.381713312685603,0.292226122704434,0.198387035025866,0.0975919421209075,-0.00502672620513442,-0.165840504177544,-0.405719985851809,-0.610190106280117,-0.688072109736997,-0.755618337425896,-0.985645424779944,-1.32147342658039,-1.50194916494079,-1.37384002113739,-1.08533512604374,-0.945152762233437,-1.1140529197696,-1.43467324753041,-1.53766453763389,-1.11621059918713,-0.191849507517388,0.785233523714055,1.17908057729874,0.705101855316849,-0.258627521296842,-1.02997926635383,-1.26758399870845,-1.12257212845577,-0.843780329486915,-0.494995482000239,-0.0852309395530098,0.268578898487863,0.455024680474342,0.546465087750298,0.730635682180334,1.06209839374658,1.36439001577505,1.41978322365271,1.21112917049065,0.921458193901761,0.713201210303743,0.581341078751869,0.451933816445198,0.343897967787941,0.335189057695648,0.399533181182856,0.389613564817026,0.20711855294373,-0.07245038623217,-0.2694496081092,-0.29043357459463,-0.262530888505832,-0.431167007330117,-0.839624159157702,-1.18009989870069,-1.12450344759823,-0.752062221891698,-0.459666131151583,-0.482887108533193,-0.681955804355856,-0.770385531574165,-0.614882641723228,-0.345636527666521,-0.242809900383721,-0.403784166323223,-0.464595344255043,0.116897570058762,1.3142484320179,2.28128721061105,2.12760108734161,0.88339408571657,-0.504558928253166,-1.12625616684702,-0.884081065414349,-0.34835697383772,-0.0716700727508002,-0.0562565601383743,0.0148791318061784,0.258856469236034,0.869202260620792,1.09965143858233,-1.68601413165443,-6.06621377159076,-4.09286040251889,4.89229994537449,9.07676229614806,3.36340742265298,-2.71949425859629,-2.08099631520107,1.45204145070579,2.54449231414792,0.835079941157504,-1.29158125859726,-2.11666241999523,-1.67194406675443,-0.851973651652058,-0.228568069997331,0.154069024665285,0.371439791233719,0.42259546245255,0.379991669511494,0.446089717815025,0.713710665782864,1.016559059767,1.12608473527068,0.992746052297251,0.742906256364059,0.53772207401236,0.468655692546364,0.515119656677183,0.584837883262055,0.612366361297291,0.557494527803853,0.314321802008027,-0.185820233376707,-0.705972520362729,-0.802657338702108,-0.405123365477131,-0.0655086049587182,-0.324046599785079,-0.972749618896117,-1.2998678772429,-1.01034521782951,-0.552586373293383,-0.492346296532309,-0.860744497179451,-1.22085652230145,-1.15791127875721,-0.592335740267877,0.226021636237214,0.897112268537149,1.10412979220645,0.770556622220796,0.0620899176850618,-0.687159830479455,-1.09488859363675,-0.961841311104857,-0.44559290833018,0.097015482595736,0.441007459777856,0.58482346370721,0.601154061936652,0.569315007726576,0.621113803023051,0.858471217084798,1.16275342667356,1.22752240011198,0.895612715418485,0.383257574373536,0.0511524312565152,0.00702840367802323,0.05228920418924,-0.0136136106382863,-0.165616163939885,-0.262258032389232,-0.297531030173621,-0.43433914291996,-0.752310153850314,-1.06562920089871,-1.1251874393031,-0.963610378720519,-0.871006809766119,-1.00106293315098,-1.17675393189891,-1.16969882450268,-0.970965056360962,-0.617110885934601,0.0047591080274746,0.839034045506188,1.34166289590178,0.955841288929215,-0.123449235672431,-1.07829699811278,-1.35137943939296,-1.03652809988888,-0.459814935088566,0.179274209620121,0.710602589585991,0.943301374045475,0.872926296772125,0.737136577639501,0.777378075232561,1.03773332660982,1.36345513599828,1.49010815582208,1.21642539066603,0.629858915461458,0.0994707111546447,-0.0746453334768204,0.0489813488633693,0.18497419854965,0.144494343840381,-0.0545564481657888,-0.300300525999653,-0.510397390869005,-0.673888521107263,-0.802371782492653,-0.853504076282218,-0.7847344798905,-0.700125277506789,-0.797091779484325,-1.08996442822477,-1.30251824120039,-1.10784458016109,-0.423639293742006,0.494668199899227,1.15377374801978,1.09930453301224,0.29450664199337,-0.754449342286911,-1.38079952896769,-1.29269087826999,-0.691142385996507,0.0264903340948037,0.524276959615521,0.611023149098492,0.355306409932199,0.143657813209625,0.375769827062222,1.01057479544433,1.58681432289015,1.75103008181574,1.58109362254019,1.33003076695239,1.08335375433292,0.820345133868669,0.622520969653869,0.592149896738722,0.63733963534239,0.544568748725018,0.264020945874662,-0.03443199547026,-0.206877604929901,-0.297813131338175,-0.413820537951109,-0.550195156797041,-0.626700843869202,-0.647493910125877,-0.735034774948926,-0.97385124164877,-1.26384213082392,-1.38684473226061,-1.23493408160777,-0.957749376436994,-0.848020154947097,-1.01759598604522,-1.17148621264906,-0.814871921513436,0.182903363616743,1.26327196741697,1.58895134838008,0.862237100977319,-0.355710098862206,-1.20132629217911,-1.29106756365004,-0.896176276959122,-0.471960960079507,-0.173625804873963,0.150687556092846,0.601457228659617,1.01020171343892,1.15167086830117,1.06776641630327,1.0124672142784,1.10372897701441,1.20774257148519,1.18202085845539,1.06766299146953,0.9841065732782,0.944935700120283,0.85455717860279,0.653021475852295,0.40345578632916,0.209635991853699,0.0827625433368246,-0.0439819204656692,-0.188071617261995,-0.303279936909791,-0.394851577869029,-0.541392678925906,-0.776182684754259,-1.02314514869327,-1.1660541697147,-1.14016081072217,-0.980966611870241,-0.829962318703194,-0.849554895729211,-1.05708555708044,-1.26375509984627,-1.2508251860113,-0.974287227927335,-0.509523122965256,0.1182687708568,0.848246152400112,1.35809059309658,1.19761102745041,0.291162037542871,-0.831601653021626,-1.45602995155453,-1.29032621267297,-0.594123932531604,0.174249810706023,0.69693801103489,0.881629515754773,0.82280871129734,0.729656431148086,0.795631669118199,1.06532388900945,1.40749307222602,1.61315843950553,1.53856186558719,1.19452513691052,0.744034546093537,0.421543901706737,0.379162485777553,0.53287601931769,0.607086250656362,0.422508301619176,0.0953809689838737,-0.149421088292667,-0.298157168891658,-0.5219014569491,-0.849691752453272,-1.06221827731237,-0.997396752582975,-0.819084717362616,-0.823897640941772,-1.04301780589511,-1.22073224988122,-1.1902214418693,-1.07448854195369,-1.04471033044635,-1.03954165911843,-0.835793998673761,-0.323134319639239,0.352675562035935,0.862294566840734,0.894111885308239,0.388193929076371,-0.363865467922143,-0.904236714484836,-0.946362559597443,-0.541854857150357,0.0208300304553083,0.421324790582796,0.504230323316374,0.408228623080862,0.464340334071557,0.856652323180138,1.40161163602666,1.72667741578179,1.63958891873189,1.285689009868,0.973409256857759,0.871652388080251,0.874309474671667,0.769197746759664,0.520125326624697,0.306700223746824,0.267019735402151,0.299341354682939,0.18585944810573,-0.148883569841923,-0.564747238115002,-0.855151362594911,-0.928610442471807,-0.864256069481091,-0.820679207416838,-0.894949470939346,-1.05840268835733,-1.20790117653919,-1.26759447967142,-1.25474748760737,-1.24693571941639,-1.25347447824555,-1.1226242452883,-0.642149363916347,0.199017019245289,1.02506433994213,1.22287645425306,0.461244893917435,-0.844522649331604,-1.74029784011909,-1.580465760679,-0.63162193067842,0.243366824985867,0.433701028931458,0.0618492582716778,-0.273168629374331,-0.101793351778,0.554813791171225,1.29220902052587,1.67980858171007,1.55947389932794,1.13488776523967,0.805046318133985,0.822702991485126,1.07520404038415,1.22537515729512,1.04884422460378,0.622502676766123,0.253625613307708,0.245495890139876,0.626559918223772,1.05469156612868,1.08641992394756,0.617539657926151,-0.0038378259359704,-0.347149280655945,-0.303568853314031,-0.0815143392913777,0.0746528415950531,0.0398237359486373,-0.230263681256884,-0.694242683776542,-1.13699085086044,-1.253379334118,-0.967062149735817,-0.598247151694872,-0.568447008996719,-0.942178414535959,-1.35431506808047,-1.40467398491685,-1.09072285240808,-0.822139838677302,-0.942739840499747,-1.23414943068101,-1.05728297203703,-0.110097729599563,1.0771449658315,1.57240990877935,0.952729937057948,-0.294127384289807,-1.2439495184531,-1.34130392628575,-0.769813829011885,-0.13766513929447,0.1295531955563,0.0936610929420365,0.0855220878866225,0.303678107957163,0.682347122280068,1.04886633765243,1.27661317014334,1.32648831854643,1.26961001951076,1.2481103069539,1.29937841468137,1.25815307237929,0.974487913094883,0.598706177077586,0.461812068347553,0.642171355027283,0.846737397268117,0.805255825279405,0.582779669665657,0.367102109566788,0.150798578177186,-0.157023333586032,-0.442064252441393,-0.477915526071757,-0.291245734375659,-0.197294769989967,-0.393718909246542,-0.697204464956285,-0.822787142004264,-0.795232127154971,-0.875454313474039,-1.12789638470566,-1.3071621018142,-1.22480400899313,-1.00562952157964,-0.868907015055396,-0.840353559688004,-0.829233308248721,-0.848449553391923,-0.955637081421159,-0.998755152344469,-0.620385814186901,0.322372331972393,1.36987739159646,1.69305381427585,0.876492313508284,-0.571230071871732,-1.60565194750502,-1.56317631713328,-0.669899274420498,0.303973647843066,0.792232234510314,0.811395828026008,0.707062398558808,0.692861910427049,0.717442391223406,0.713859563572998,0.822158295441862,1.22576811129964,1.76760788823581,1.92710945236094,1.38123882956659,0.505399297079091,0.0563372325570031,0.333521369434971,0.872589195314653,1.01463969707204,0.595386375341427,0.0108362433628629,-0.267544475656082,-0.157307053363798,0.0274706337586951,-0.028671780085138,-0.319273942200633,-0.614041758688655,-0.775302747409261,-0.859993854107615,-0.941929668109122,-0.97390809200036,-0.897551647153397,-0.806066283098183,-0.861976414332466,-1.05480104168178,-1.17861654107827,-1.09824951690554,-0.918829374541289,-0.804916821884451,-0.700396784257285,-0.352771725412594,0.325362695899485,0.984760587595918,1.08257461099097,0.462093237489006,-0.423879148764581,-0.960935167731976,-0.942279384497226,-0.591816511458128,-0.164324521641777,0.263950651923025,0.653139850707645,0.887550727803495,0.906672078046283,0.847108777338098,0.938687158984376,1.23568847081495,1.50964847270173,1.48731765765132,1.17404057030283,0.830759327033608,0.638189896451227,0.537580029793008,0.42820443221452,0.342202890819333,0.337997910430602,0.351745531672767,0.249752231823962,-0.0333025347863633,-0.4418150402321,-0.818413716400702,-0.969368157643443,-0.814747936118832,-0.528122102791341,-0.44097233922557,-0.71780754800839,-1.17109267838024,-1.46888163015983,-1.46499521447414,-1.25966189108995,-1.03361874342923,-0.904974744790061,-0.833267530681276,-0.592023163627801,-0.00132086623951364,0.710359406833334,0.961956898287872,0.415979414971247,-0.565270917914493,-1.21736142882235,-1.12157901209369,-0.542062055350492,-0.00715844860634762,0.276657067296103,0.466436862462728,0.691263819143116,0.872010593335764,0.927795202293243,0.949772893837075,1.08430899060983,1.34271812937422,1.58795620801407,1.65949620073786,1.48512336431665,1.1226322666892,0.739097126214151,0.533985930626684,0.610691027105633,0.84579897682778,0.911395126665759,0.560958946332342,-0.0592308368203569,-0.496734971324174,-0.462354399257308,-0.141229124454787,0.0156930791044856,-0.245932660923972,-0.772517343430183,-1.21203103443592,-1.36992477342109,-1.32824338849881,-1.25540371370118,-1.19648672354315,-1.09208938753723,-0.943005817876028,-0.891344767507948,-1.09556239277594,-1.46065831805637,-1.52998785326928,-0.867100586372778,0.335069877809897,1.23891517478277,1.16915188486063,0.298058479878035,-0.650983218623475,-1.18624839261948,-1.27867573988526,-1.01490842217616,-0.4399359360961,0.238549586233189,0.649139139638643,0.633965747426737,0.456688764916812,0.498583048505196,0.849334594472726,1.29593797376954,1.6114267924254,1.71820079168282,1.61836812852254,1.33090818642523,0.957578269252078,0.699004323183725,0.682944367196823,0.804904683985207,0.837976286028085,0.685533698672904,0.446303916960044,0.261276354831501,0.179550384491084,0.152391848324101,0.0887751698693208,-0.0825659089016314,-0.367869027731615,-0.698192694562683,-0.943742594226861,-0.96981712738979,-0.770855542274243,-0.568122286637245,-0.656804468073098,-1.06815516764629,-1.46538000986197,-1.49292212478842,-1.1838425038793,-0.886762855549587,-0.81546132988888,-0.853079164829557,-0.823997285765282,-0.71628587749614,-0.508046557893501,-0.0373294860811704,0.68127147620903,1.18714353750554,0.972759624131332,0.124452325223968,-0.712185731093522,-1.00563008799569,-0.753158542469873,-0.253279778762383,0.258718776871689,0.665117922649447,0.867641394095912,0.823708630273699,0.6676093776551,0.683380787367994,1.06009541962927,1.64441704557655,2.0044505058618,1.83113791774798,1.26661383433565,0.759475743565619,0.596632342379868,0.650432725143024,0.602313514395406,0.343720252844854,0.0842294621686584,0.0629480502703619,0.224466827197691,0.260785880055131,-0.0202329509266446,-0.451233396732483,-0.703761405411272,-0.694050479037708,-0.681327385496871,-0.922304853070617,-1.31493245143383,-1.49107294920344,-1.25412678518978,-0.814205392373612,-0.541671746105412,-0.593130419119484,-0.864534946509498,-1.18488914609782,-1.38716310523927,-1.2718421592978,-0.724020337167931,0.0999440953116466,0.827037611946896,1.13418478545931,0.919806498369752,0.288011168038082,-0.515585640275908,-1.16661052778835,-1.37275844700444,-1.0108775204986,-0.219999288234598,0.611797128131482,1.04112518536648,0.902896027900123,0.494162508522949,0.339475539395751,0.707600436129712,1.36812122111916,1.82228942537226,1.75014453431426,1.25512494166555,0.721974289048103,0.456865797268281,0.472054450000284,0.594477940934816,0.678701295659321,0.648496925863811,0.45291333310158,0.126879602199979,-0.18282083842635,-0.38451568333363,-0.542688757500845,-0.691708617695031,-0.695773153007948,-0.487704417140667,-0.340012300930512,-0.636902242202629,-1.33418181420663,-1.86741004012616,-1.76944769187457,-1.24727236472816,-0.907565878248687,-0.970529952208096,-1.02456119552577,-0.57722685477549,0.358751221105831,1.24136504964934,1.42139326492612,0.652473802129492,-0.644638974280661,-1.64789727134045,-1.79933739838035,-1.22642478132333,-0.481625627082199,0.0363389820803432,0.302931976507842,0.438500750914484,0.512356653784796,0.607140688423788,0.845045901855437,1.21709137244404,1.52371429899333,1.60218260279305,1.51051336365052,1.39435522133197,1.28675286477989,1.1546127413337,1.04078136374203,1.01029391457364,1.00093740000509,0.866295724405589,0.573604198820588,0.261671534452607,0.0770205398764832,0.0181790161336099,-0.0244096788704131,-0.123940139475918,-0.261886305590587,-0.392953821872597,-0.513952038769163,-0.657543486441298,-0.834396864648088,-0.994911586368995,-1.07110023708264,-1.07581421581066,-1.12803867654111,-1.31756926396738,-1.5469851921715,-1.58970178144675,-1.33361412071605,-0.866465162455929,-0.279331570358626,0.421997323732417,1.05873108580037,1.16042121432205,0.430094383090839,-0.740424647734401,-1.5237474353144,-1.4631361850869,-0.832403149279286,-0.193715870042152,0.173175268261508,0.338741996883058,0.447987903515096,0.547125586372445,0.6180948728355,0.689438001446725,0.875014141207862,1.228913051583,1.5702406597446,1.62047582956586,1.35922903652699,1.05953308205206,0.914671824372828,0.82806000673928,0.653206669611292,0.442630335377996,0.323822518464445,0.278194192914969,0.202818841137523,0.0999184474993021,0.0525088536838396,0.0514891546463313,-0.0385303130052854,-0.33926705714612,-0.809965768573111,-1.2085839124684,-1.24480607457553,-0.891587684513192,-0.52186346959282,-0.572741580619365,-1.04816853870636,-1.4923442920609,-1.49026111422772,-1.09437001136181,-0.7331600881297,-0.751177891814108,-1.02434848721584,-1.01452325062789,-0.303927136219521,0.847882280590318,1.58632177202034,1.25427067955075,0.0808688974832444,-1.0382190380992,-1.41341777063811,-1.07649919767548,-0.482324455048642,0.0412606987795255,0.439739297834071,0.736387324766527,0.912515298716687,0.963311495450732,0.955182298133976,1.00505579947561,1.20489698713379,1.51215858198082,1.71477133706376,1.59904553660355,1.18702245444817,0.736931866909638,0.481642659656664,0.423639879335587,0.403438513195185,0.306018000945331,0.154798953937126,0.0350900156434018,-0.0209155981176359,-0.0767072288297711,-0.251179089829219,-0.604613179182571,-1.01419455731692,-1.21853174519809,-1.08847245078079,-0.824858804317159,-0.762909129218076,-0.973453574050329,-1.19057374799622,-1.18653772803435,-1.07966363933846,-1.12122639839155,-1.23104707998967,-0.952405256973705,-0.00322775847989075,1.18692252443921,1.67621650433504,0.901090324500317,-0.645690402923997,-1.77076085604554,-1.68860193224788,-0.709099276932759,0.216567614548944,0.515405836019735,0.421886197332137,0.455798982270375,0.72813488763473,0.936045058142712,0.914937734750599,0.915090797579039,1.24079897380893,1.77766495878797,2.04113004939816,1.69063528947904,0.914872697651524,0.275079391360241,0.184645093367538,0.560408318788722,0.96742658918578,1.04328326230069,0.740846122248623,0.233581987614762,-0.269974939093864,-0.59056464647831,-0.616891263061341,-0.430356747974201,-0.333634205063621,-0.586143999670317,-1.08116181434665,-1.41336975015142,-1.33237273340586,-1.03571703158956,-0.919893921508988,-1.10205706862486,-1.32111418878983,-1.32050029063224,-1.17002181738613,-1.071504471299,-0.939779267706005,-0.438715655055365,0.459777334284647,1.16535733549683,0.9866804182197,-0.0545751599754659,-1.1571572563544,-1.55877736098889,-1.22966250267569,-0.658351680815737,-0.195375950376938,0.15023464807217,0.422226199516402,0.551560809841863,0.521239648372695,0.504626807411998,0.730223841689355,1.22692069265461,1.73214408820757,1.88665313974376,1.5675425802013,1.03183208425032,0.691228300266373,0.724503872866017,0.932032137474387,0.993927555772419,0.830940208490885,0.630784154406822,0.549947816838122,0.538276589468107,0.470276165064437,0.28389477013517,-0.0274555244671419,-0.380594848862132,-0.557190059300539,-0.398592858410705,-0.0730165214500046,0.033862652008056,-0.259800988821863,-0.747702107899113,-1.10124038902894,-1.20255261331475,-1.16102514503958,-1.10450432381305,-1.05793211413398,-0.993988593955215,-0.930710857498915,-0.96504370677508,-1.16746886450771,-1.3916802087423,-1.28665466573919,-0.643440059671106,0.306794407627818,1.04668689731277,1.18963341789515,0.705216051994173,-0.137045964412956,-0.917698723203828,-1.25264385794014,-1.02478022143367,-0.480030502513486,0.00303020267778477,0.267667430458317,0.428637007289422,0.6023869949166,0.761605808922976,0.886052459005035,1.06902246619126,1.37755790403995,1.70205630009929,1.801792957386,1.50074743330198,0.912788485850326,0.46921447221437,0.542965155272472,0.985647334056244,1.22881879759865,0.939791894866779,0.398290333703101,0.0965283068494474,0.130108547363853,0.181818917052595,0.0162616692613926,-0.25616557253125,-0.429415293883042,-0.498406751349569,-0.595619397621177,-0.754799966255025,-0.868301540199876,-0.85711773113969,-0.793024015873005,-0.816358852835452,-0.966827127179063,-1.14132200849905,-1.21737918973728,-1.17224051596994,-1.06474069660506,-0.959430750388315,-0.909990893018616,-0.929536919411314,-0.870482568579599,-0.437702712316817,0.439760558849387,1.25327107489985,1.23755801293601,0.218068906357127,-1.05490185162392,-1.59699941024214,-1.11466899440263,-0.146352213389128,0.572522331860589,0.734959236224525,0.549282809873549,0.407652832657057,0.539033271681822,0.905670677939208,1.31729007769958,1.57579270365566,1.55498427729208,1.27175687002608,0.928385559811023,0.777333143043249,0.855270060213373,0.925744060565887,0.783867724543555,0.536903381039247,0.428868174647748,0.44966968739392,0.342275735363221,0.00634742220358981,-0.333087728831419,-0.431665264725865,-0.337699796658894,-0.312228817488728,-0.519870585237248,-0.872386686972687,-1.16102827800945,-1.27145816577014,-1.2206582712328,-1.05349144935609,-0.822615446955058,-0.64824625037518,-0.66733798789789,-0.885725460704598,-1.12774952793192,-1.13324925344391,-0.715217576659379,0.0680459121440701,0.822295657293628,1.01103362453315,0.422875950613988,-0.534233829999215,-1.14632918571597,-1.06305916575253,-0.558840634944879,-0.105341431735254,0.145628080438954,0.348488601558699,0.590891243687024,0.749758161016873,0.729915199777228,0.681555430859118,0.855106232200118,1.27322522373076,1.6476768304887,1.64816037751449,1.23027054044232,0.711050166914461,0.512707949655763,0.762059328060192,1.13890454042656,1.19569809544701,0.811471116436806,0.2563224824647,-0.124014464419448,-0.1735834164803,0.0330830493619593,0.242154509133099,0.148451563659592,-0.341460329257908,-0.926914366051131,-1.13735249370081,-0.843848041804985,-0.460554272036523,-0.503968335051672,-0.994698975522606,-1.45202733551155,-1.48534735712139,-1.21819774374589,-1.05179058533766,-1.15617687566608,-1.33628000785752,-1.33212367255346,-1.08916743857691,-0.69232684865461,-0.161421948820423,0.516205368160577,1.13713669989268,1.27341060977155,0.685489151195699,-0.338424900012732,-1.18639156827483,-1.40822199800887,-0.953901595446712,-0.102204047495166,0.703316865285879,1.07252353783553,0.922672312120247,0.537677132298228,0.305115458279412,0.406148348049133,0.78765744090437,1.31238241211334,1.783539452182,1.92488139063397,1.59060183393432,1.00722913257799,0.604102179684675,0.564113083615567,0.674649518532354,0.633134445062306,0.384132824577648,0.116152600555511,-0.00665512901079462,-0.0263562272990011,-0.0863453378450356,-0.22257456186507,-0.341500315901284,-0.37578444374683,-0.378314034505882,-0.451422757581328,-0.633140632514779,-0.867839277728031,-1.05155429912538,-1.09611009118613,-1.00061019401225,-0.884179411039877,-0.890355650797325,-1.02185273870798,-1.12157001678,-1.05289497838456,-0.850221305702237,-0.658715035048847,-0.568088697978613,-0.522922706641683,-0.34383481493643,0.148731744749126,0.893735545346185,1.43599022542876,1.22740156961872,0.250522989850613,-0.813520876217866,-1.22401000832391,-0.871074445776084,-0.202745398686535,0.349892186974485,0.674638561944221,0.837399151357783,0.897929110536028,0.917241087373739,1.00726734054209,1.24824151346934,1.54874944044833,1.6484744287527,1.33766395240708,0.733028375053559,0.273737774053061,0.289902076153794,0.595376757147761,0.705663350812181,0.442718452520195,0.0802434869609284,-0.107783690676381,-0.170804694981236,-0.299365740572537,-0.535032248710241,-0.763174573018691,-0.892978893859779,-0.949616886861043,-0.994882485336123,-1.02443721345652,-0.984810535590091,-0.852421353574877,-0.676028265653054,-0.597683745420695,-0.784662652224703,-1.16831642435187,-1.27744080502081,-0.614825842725474,0.675323978319758,1.71898533114364,1.68453349166813,0.601004254438103,-0.695044799767464,-1.37847409224273,-1.2715710666368,-0.709200940715577,-0.0496629668727997,0.50323799259111,0.796638725047462,0.769122725908144,0.613442955621246,0.679327631561293,1.09929611311858,1.58922103481323,1.71777526828743,1.35846968120129,0.804198039164857,0.44245125062555,0.394815914213324,0.484707447952683,0.472584342840067,0.268450874180592,-0.0372111987122391,-0.279988427469442,-0.366222308924173,-0.366052938163788,-0.455623727238134,-0.718689978802571,-1.02882276684475,-1.18988962878447,-1.1674910035649,-1.10745528055851,-1.13821139894134,-1.23245354875933,-1.26898799236049,-1.14272959415016,-0.778219762809627,-0.151152752791325,0.57929031227136,1.02459975016755,0.821751332366075,-0.0149585871518023,-1.04484080932641,-1.7091848798428,-1.69810935474927,-1.1091515092047,-0.32697789109394,0.27316622703497,0.550659010759333,0.579277170356544,0.507513915656777,0.499022683045796,0.691219131587108,1.05823827115578,1.35910666148047,1.36412163855541,1.11736930160118,0.869137960802604,0.794441650658643,0.888628594284057,1.05734480945354,1.15196272121036,0.995411310994931,0.577553305445858,0.195897218028262,0.192347280671214,0.521876566108336,0.757998615027992,0.581423964403577,0.121582582878354,-0.247547648839555,-0.322661332870993,-0.209736315103474,-0.153262271649847,-0.300217739501151,-0.578070217621474,-0.792494902077681,-0.876041382990415,-0.956091780951087,-1.10788166009729,-1.18868481858195,-1.06785859079085,-0.899520678452586,-0.960506164368531,-1.2489610964344,-1.44343640039523,-1.30591065804785,-0.93740282814583,-0.521122954468862,-0.017021471247949,0.639487620375248,1.15389116508545,1.03076761755773,0.197827860786485,-0.762972706773787,-1.16802333901211,-0.90418339407912,-0.406647008185777,-0.0627685515630152,0.141362305316438,0.381143018426646,0.654986813516603,0.830904459068927,0.896628528582335,0.998115349851394,1.23763557898426,1.52468509651849,1.66624434882295,1.57138589160911,1.3179355963861,1.04145602864177,0.836828565226255,0.75327267411305,0.770680470988534,0.762660543963495,0.600201777848841,0.326847956256131,0.119869861106416,0.0423250861743983,-0.0442148315802302,-0.2630102724297,-0.534584847017355,-0.692544265490076,-0.70567488728664,-0.698345085974607,-0.811531956929257,-1.10465306340106,-1.49446469041423,-1.71956127634318,-1.51992522799726,-0.978707895097249,-0.539587057369222,-0.54777514147524,-0.885811786765752,-1.13468860634071,-0.957818397135314,-0.305373650959958,0.551501689148906,1.10495241827523,0.912099747827298,-0.0188034347471825,-1.15173444703003,-1.79047835221554,-1.56984546912487,-0.678505656585396,0.313734467096539,0.878747146870222,0.888621857795594,0.627754331995116,0.485246129931498,0.649401504312365,1.05089288568512,1.49711542160937,1.80168317231123,1.827401866272,1.5206838927004,0.999353518471736,0.562200134485837,0.465020473038796,0.653772280559661,0.830041543594989,0.787673316535269,0.554593055538402,0.227563339009594,-0.126270886410015,-0.379617099747411,-0.392325142587276,-0.253686383233409,-0.29259826256922,-0.698762566352767,-1.23550852868561,-1.46508881074173,-1.23023961161245,-0.818769013430173,-0.641353670338353,-0.819722775848603,-1.14446582503711,-1.3558226974959,-1.31257215860888,-0.91982558353684,-0.148377448765893,0.752176571815774,1.25046622795185,0.940890997334022,-0.0604120129346187,-1.17211972448254,-1.76539370778655,-1.57153260205788,-0.824710039886882,-0.0602594763668176,0.305245312216408,0.269505945232711,0.155376908098081,0.268154102538006,0.65508889979745,1.13776842097831,1.49392294227041,1.59593345715322,1.44902076311437,1.17294004803433,0.930883629354721,0.809971796319199,0.774126219789562,0.761974764854712,0.770816105386122,0.79358803079407,0.752747784571419,0.574845665116756,0.292889458157696,0.0405833042388149,-0.0312213402092429,0.130680582163723,0.373870975530636,0.393700737818072,0.017287699242107,-0.571838934713835,-0.99631084314326,-1.06658818727898,-0.912714785528543,-0.766866400829485,-0.743959759408822,-0.847834259374997,-1.04783598619917,-1.2585705551968,-1.33435996829726,-1.19705035057152,-0.946739971344544,-0.785267161865485,-0.833504137017484,-0.994576766001493,-0.940150343690341,-0.33820596021921,0.707614260541123,1.49624581995583,1.28658388760455,0.109614719062396,-1.16404315083841,-1.65993510201107,-1.25814266090646,-0.476207586560212,0.17054338148092,0.526981269070708,0.688587741018541,0.777423537919297,0.839516055647905,0.864046598097263,0.871569785181689,0.958106456606846,1.19630906561386,1.49518416990381,1.62143633706974,1.41117616259238,0.964325629559811,0.586770662351259,0.507327496853457,0.67369431443317,0.829542353790771,0.744857347754845,0.393288986866458,-0.00751862994459072,-0.151958613810894,0.040344533400365,0.268979086405554,0.130773496624031,-0.424760090069876,-1.01357159003431,-1.21193157351278,-0.964561976014731,-0.601907895007226,-0.517828614298702,-0.824534650060403,-1.27748154676586,-1.53488991771125,-1.46958919807304,-1.18938708896653,-0.843164325427079,-0.558835766800015,-0.502550641440042,-0.735091500559138,-0.940702629769462,-0.573832657027098,0.464255636017728,1.42585931727609,1.34864969452113,0.159192374705844,-1.14199056227205,-1.53131083988978,-0.949269468503358,-0.103537505952007,0.414382709084866,0.562814330488299,0.605907951379811,0.735677627184061,0.934743916003326,1.08961212333801,1.18959977577276,1.34654303798885,1.58151005212316,1.71612720941734,1.57382139183834,1.19092901981058,0.757261067094119,0.448509695372102,0.349370697131802,0.412282268857641,0.455989133195145,0.320120501068222,0.049531166234281,-0.163852536114965,-0.231808811804515,-0.274815452630391,-0.448444082352661,-0.739447866265215,-1.00015536268074,-1.1398787959731,-1.187990210515,-1.18687576754405,-1.13787611568217,-1.070324069947,-1.06222946164555,-1.1398195258485,-1.19102861645907,-1.01255703049395,-0.473659157484579,0.30977686113034,0.945845842362899,0.997027397932911,0.359208429905154,-0.571927895102353,-1.19202949183049,-1.18760819393287,-0.730484191936819,-0.214116584562098,0.116495238814241,0.277727092092706,0.407486385446115,0.599015988807314,0.848283567311455,1.09129255612055,1.26210421543019,1.33698266860528,1.34071423391181,1.30600245343577,1.23385400341662,1.10848444795434,0.945233885132253,0.804990756582544,0.739284476027615,0.709632654500198,0.598528311571044,0.350811964051788,0.0739524797919185,-0.0733943639164461,-0.0779021287887486,-0.0853601771641937,-0.221135451656,-0.46130484490789,-0.688272877737667,-0.815984799665965,-0.847529160925095,-0.863315798055041,-0.965935579194228,-1.18219017980681,-1.40870937045611,-1.50372533102007,-1.42724257096957,-1.25035229681033,-1.07424970688684,-1.00087419165484,-1.09386852792324,-1.23101094158026,-1.05593969898436,-0.30773867882778,0.712051574847252,1.2056861096337,0.637817504836885,-0.625424246089206,-1.60907475141935,-1.64444344059044,-0.894819027686357,-0.0568923464163921,0.304021370320378,0.161248949686671,-0.0603307288969667,0.0806462952896204,0.639686070495652,1.28277245162599,1.6500988009068,1.65837293185584,1.46461499474807,1.26141641576135,1.15874259989879,1.17672051238842,1.27027204631994,1.3548598125489,1.33998925547055,1.18294287759533,0.937392718244945,0.73532138711872,0.68958823848991,0.783817760729838,0.856178240829909,0.742902626781454,0.46417736139852,0.208804305368695,0.104851604457226,0.0780992261235135,-0.0212843463653241,-0.219080830740266,-0.405176297907108,-0.506561786919979,-0.613231744826204,-0.851865940953611,-1.13401894229589,-1.19152510177863,-0.961351790122474,-0.75729178709704,-0.897875044782085,-1.31881446080007,-1.68904699076876,-1.71933242218427,-1.24951838236358,-0.306600611964522,0.705092308696037,1.06985316890258,0.364869134270531,-0.993218029860313,-2.02419842275146,-1.82930477645144,-0.140033952423543,1.84687614459333,1.95051882340204
