-0.799927955064467,0.292280861796893,0.719151293715258,-0.132822593305741,-1.10037112025976,-0.878600475393909,0.261220908732703,1.01879272436675,0.644170035730582,-0.416750318474548,-1.1282004816761,-0.857373762810209,0.124718033310975,0.975217032167317,1.13717856530889,0.830167953305012,0.592863780548193,0.557038454662026,0.469220540459307,0.227651625461319,-0.0350570296927312,-0.330181113062906,-0.824504362266595,-1.41889020303096,-1.68817410290594,-1.35038062652262,-0.542242785668147,0.368128069499234,0.942879840490915,0.759654858119749,-0.142506294162543,-0.894337210304182,-0.510030591027806,0.822765734372985,1.73925632408965,1.28870444866934,0.0513423601434989,-0.673513249114508,-0.371798369285004,0.416301507825628,1.01444377648065,1.25657473678984,1.27215620337273,1.11657078188187,0.818844403415238,0.542527671878816,0.428168871528343,0.335882110799442,-0.00922996196393173,-0.582257370975296,-1.01558502121454,-1.10804436067744,-1.13690310162136,-1.41379134945685,-1.65815309189687,-1.19106777527051,0.0785470170896588,1.15984052286432,0.924552059825941,-0.446824529381921,-1.44126160350628,-0.894278396021983,0.654514069968982,1.63627337499501,1.22186633374367,0.00282510237436684,-0.897344022735226,-0.864580172519707,0.0108737160752906,1.18753397884291,1.91384047822849,1.68686853651354,0.809763914972565,0.210184331930382,0.405060404348701,0.870505702507138,0.734247590610728,-0.0999500703419026,-0.871785198784493,-0.938551918771129,-0.504184119638532,-0.325186734440287,-0.880221172877507,-1.84543096011826,-2.27368023881452,-1.41867100465238,0.362313854103686,1.6223637701468,1.14344516072306,-0.639151710075234,-1.88031893240726,-1.2649822254511,0.528092411916883,1.6379904752103,1.12565525471932,-0.18097734286509,-0.896749629939034,-0.581340324390096,0.178682155031158,0.733619737309675,0.981252707748867,1.13847067034244,1.26769055531443,1.17844658311574,0.735727747628997,0.147474166405812,-0.177198619859336,-0.0935597609504256,0.0735631185115792,-0.10905884283855,-0.720458442888355,-1.47469883584863,-1.97776154249181,-1.8388114705421,-0.834639651627018,0.656117137693595,1.58317243640818,1.10663446915068,-0.367276470140667,-1.39638543148309,-0.949235588685937,0.523803095178942,1.6076744596402,1.3782447702558,0.192876019760736,-0.842609374169668,-0.940979933974677,-0.159294299694676,0.862117833128912,1.46670912516114,1.39056227555669,0.866182995128737,0.40216185070481,0.333391222303845,0.510662758762615,0.485111062500322,0.000327532034740805,-0.770623907041945,-1.4456957069892,-1.77842412725662,-1.77745968590928,-1.55733611818577,-1.11240219369838,-0.343025020766178,0.55573305817233,0.911077401010826,0.226182843642793,-0.955587303398105,-1.37272660330689,-0.465275461110611,0.931656783789857,1.53337774509963,0.909553339944738,-0.296486622480279,-1.08213734359857,-0.840575280415096,0.274025671904548,1.47549626381226,1.96280482737217,1.58337112468411,0.88255488656636,0.480995619126755,0.470963668196078,0.449025575139591,0.0547347485228081,-0.614421440286967,-1.14028882557272,-1.29569915543448,-1.28916116453254,-1.34180278908447,-1.15695895422023,-0.268802550062639,0.965738818990552,1.33268944712542,0.237388706876433,-1.20741583640648,-1.29777372342756,0.167968049035403,1.58615956456533,1.44583505342448,0.00474378692029864,-1.18162450377958,-1.0430515078017,0.0787673211844513,1.13119346072174,1.49187352819341,1.274252857575,0.894081219722471,0.667152216517457,0.669338488878043,0.698790797813133,0.423083173157495,-0.23922113042114,-0.932539108520603,-1.24772403625569,-1.24747847552089,-1.34426293272387,-1.59137933725164,-1.43535382211491,-0.488455113415082,0.666346291985167,0.936639319319235,0.0611696522730313,-0.936208971875312,-0.896849528316312,0.137696245697732,1.06143722600409,1.00825488690817,0.170345647962266,-0.60996425045779,-0.711339145642775,-0.149492570963782,0.617827139734739,1.14778478066248,1.31106001775032,1.22770378990459,1.02892001586981,0.768488332768283,0.502531465936276,0.305164133674799,0.159050861267773,-0.0694058746828108,-0.458905554582795,-0.898166169818257,-1.22292210555497,-1.42767054876389,-1.57807510076853,-1.51862426978998,-0.908926809937763,0.243131763963811,1.20284099758796,1.03962115671057,-0.263722443186749,-1.49680789568486,-1.38108591506762,0.02992132284415,1.41899986002984,1.61528351341887,0.637377741110244,-0.584691804046935,-1.12859449106014,-0.661854222864719,0.504225034305062,1.64890261384472,2.07045743508168,1.59187111916413,0.704459605672556,0.0621891474688201,-0.143675290134835,-0.152519385745275,-0.141938680152963,-0.119237389041942,-0.206582328253726,-0.59624113593605,-1.19850760217266,-1.68253229468169,-1.8429217153266,-1.59760587527663,-0.781449988620283,0.509189948346024,1.42541226644632,0.9625392396404,-0.664067859336883,-1.83371668565546,-1.20301094406908,0.699559567723992,1.98912559905196,1.46258991430759,-0.198015495181234,-1.29483056845523,-0.901549123924715,0.415576891337123,1.46689278201447,1.64675725963207,1.20778175171125,0.700636498840569,0.463580936828472,0.521083934182378,0.638819825636089,0.4652982722439,-0.123819965643349,-0.795697800919755,-1.08813682806124,-0.977350054616977,-0.898554906900335,-1.14689430831009,-1.43845176928229,-1.19959126991334,-0.27536779332007,0.737121400276825,0.984867130895108,0.259198214003064,-0.689888604510793,-0.873212700337992,-0.0822474836990904,0.906787794009094,1.1521270257765,0.494916115961742,-0.343873392065416,-0.557825240962504,-0.0328320108759572,0.708590851813312,1.1752878437836,1.30603459131086,1.25832120089643,1.08712378798265,0.771583801019752,0.401777439489527,0.12857271628111,-0.0695094339318183,-0.384059922987618,-0.859663393354228,-1.25361736540372,-1.36292783555213,-1.3013344444721,-1.19634787938009,-0.814651292079237,0.0562626357980338,0.916312985542527,0.848578115179306,-0.245535869758269,-1.20754703893965,-0.884145449617197,0.434018410439219,1.33003275024686,0.925952255173248,-0.227212272624667,-0.934858516888363,-0.613260753895419,0.354569881222847,1.18199114638454,1.38906356603442,1.09786053025896,0.781119631965962,0.72016389693131,0.733686218911489,0.49316358393631,-0.0109114789132865,-0.497706549152657,-0.81661256060442,-1.09717698092891,-1.44142134705319,-1.64061944307351,-1.31071664676572,-0.332638536218331,0.815435803098832,1.26085977047986,0.53807550877435,-0.716389561835007,-1.17727785059449,-0.237309546496013,1.18957878007978,1.62587699813671,0.683925428922597,-0.598538390880215,-1.00762618883354,-0.336052854158959,0.717690856011879,1.41204020330088,1.4878425228428,1.11261987807158,0.65589965643842,0.449889533093691,0.492487340348009,0.418041262375585,-0.022952051564352,-0.568786246646869,-0.805042578118805,-0.797144480271708,-1.01875616087078,-1.6537879284273,-2.23997517346238,-2.08194917036121,-0.948306848450179,0.571016180418183,1.36134669656928,0.697502867384183,-0.890058839516047,-1.86156842012616,-1.14210295188619,0.67743865460191,1.89283540796191,1.46044343184063,-0.00259009087383372,-1.02919389211883,-0.851802411290073,0.0769773041819422,0.928410946113768,1.40088945039308,1.63079004062507,1.62687500688844,1.23298144600292,0.540060299251393,-0.0370381853787191,-0.165560689916079,0.0675114224513842,0.243820679379673,0.000515570131120065,-0.617676772860497,-1.1814297843307,-1.33405990699346,-1.20461417430556,-1.22457604619311,-1.51312358979934,-1.60620539097039,-0.961379772297123,0.24192049185251,0.985975029173595,0.404693039509855,-1.05038147313901,-1.81493797822621,-0.901770545856774,0.864528147362216,1.72112441283503,0.963035670278203,-0.38882227883979,-0.928599454919817,-0.363461937529563,0.567469735351701,1.20981963312919,1.51588142271531,1.62770787068225,1.51275541182391,1.15863374080157,0.757700806401323,0.476463951950609,0.256086641732916,0.0194448973579384,-0.119470595774531,-0.0621962379077808,0.010599501557509,-0.168244809009717,-0.560773804951233,-0.861429293556603,-0.929268189762398,-0.965351863228949,-1.16416360780157,-1.33501075089383,-1.06279663065102,-0.284502849915487,0.439048386221711,0.420623122733286,-0.347080261139879,-1.05123817889305,-0.875853811726916,0.111655053546602,1.03538160929421,1.12801458123436,0.429918753795947,-0.370448166221578,-0.586300277813517,-0.0228875369945213,0.936557260985149,1.62109053615673,1.60457143189505,1.06872097280533,0.574355997054161,0.472503507946862,0.651939222404378,0.794172847303961,0.657660623271362,0.16668280870037,-0.493229940182649,-0.878160134445998,-0.689538569517537,-0.212558317913198,-0.081000813517665,-0.555382669348532,-1.25274646187132,-1.60442417438221,-1.35947243267907,-0.635995909077474,0.237865302182485,0.807115985286247,0.663088399948262,-0.163348205303062,-0.989682807596667,-0.948604798125212,0.112274182414106,1.28966752962771,1.4440309273529,0.422935230501866,-0.729325632170293,-0.879793589050143,0.0569634639970394,1.19944426677623,1.68675800959718,1.36840156155836,0.690684605089596,0.206951694065858,0.178713555256711,0.424947646738903,0.507919037938333,0.173455065361527,-0.382424033897403,-0.758149676931261,-0.827346867695719,-0.847250326402918,-1.06038930440294,-1.34499875289016,-1.38287350909152,-1.04492554872178,-0.453530931911764,0.177462105770842,0.542972552907906,0.316537123202993,-0.387079393579579,-0.799974802415843,-0.277655959244854,0.763741015410944,1.22027798322064,0.643514661371108,-0.281080199776491,-0.656695316751795,-0.287658045450836,0.444675830821389,1.12997994496463,1.49669325879317,1.38922346710049,0.915691388528374,0.474085707871719,0.37617316137639,0.49318955626707,0.432663826822311,0.0122455805710244,-0.579254942682764,-1.03357257891785,-1.19899866380718,-1.15836631219851,-1.14254568498036,-1.27924792610627,-1.33430770043364,-0.885501867396145,0.049360323778329,0.741352376700919,0.449798835826166,-0.61004806756808,-1.3168878399553,-0.820249520536481,0.495592488532022,1.39716670638667,1.09215695062827,-0.011293284861215,-0.812537661373735,-0.606617674448304,0.389705631231607,1.39996850538339,1.79269330221083,1.50609510844346,0.957593731803818,0.596554440521324,0.519053438460028,0.491134840386177,0.303331420901706,0.0212785663706848,-0.165604015708109,-0.254155514636138,-0.42074801125718,-0.729885248683194,-1.05631739790644,-1.31488039959504,-1.5278927807274,-1.5770027989141,-1.14853010165942,-0.18949296281742,0.694524941744418,0.68055217741202,-0.269049299131148,-1.1339928456911,-0.88603077098423,0.317770675160752,1.31310651069213,1.24340025730773,0.379659462045851,-0.36866620348554,-0.42186176408876,0.119629016298587,0.826701280152843,1.36464922157596,1.59639375939253,1.51317349029612,1.21955761033433,0.900480953540589,0.664502926630804,0.450450001431974,0.165095768477031,-0.155731716995239,-0.401758048156033,-0.534095941660176,-0.600750752929907,-0.653444819175115,-0.712834716978011,-0.804876666778744,-0.986926775743558,-1.30258360578903,-1.68155162481539,-1.87041876243012,-1.53281157988199,-0.59750341150543,0.41396670232294,0.649034613927985,-0.178346069326875,-1.24839708772913,-1.36696927843611,-0.287993479962999,1.00638606080436,1.42126187002884,0.837902412565755,-0.00725981493614255,-0.382141589567834,-0.0711140900129402,0.699449011407549,1.49809873479546,1.90095814724196,1.74892624311864,1.28254380141009,0.904181146839827,0.766986116965816,0.67771635209443,0.403597930687853,-0.0181958693087705,-0.312106600133337,-0.281383741614251,-0.0598158988700946,0.011548795594812,-0.232114489933929,-0.597234764739579,-0.764021753364166,-0.654618604573482,-0.549159814635587,-0.803518232851781,-1.38754585107994,-1.76407024932684,-1.39827915844596,-0.414145768856763,0.41281859392613,0.408317364433306,-0.3172271878428,-0.980506172740249,-0.878890323065395,-0.0332726828102174,0.85578544572143,1.07831948347823,0.571172030647629,-0.0990524940552428,-0.367954258938358,-0.147680286626332,0.340362909636014,0.921987732833885,1.43046287898834,1.5468217093412,1.08186611162325,0.368270034111089,-0.00359295364786198,0.121048642724738,0.333906804701062,0.253011253547717,-0.0645790505548274,-0.354752410953245,-0.495372144791706,-0.501332391754269,-0.407795841119713,-0.323001427859432,-0.433542317515758,-0.782963585312238,-1.1350298577618,-1.17848551784028,-0.794613187512096,-0.0958277484739069,0.603407597684697,0.811270353478107,0.223750247559548,-0.69258703583913,-0.868921862619377,0.159496651677586,1.46070450093597,1.65657246753859,0.574660457402863,-0.577491248126874,-0.697144186708131,0.0898460239567729,0.918902350987242,1.26140469778978,1.17928389471477,0.890189612634232,0.5254274905636,0.218649114520962,0.106121540420493,0.165515747548809,0.177290929782554,-0.0632066740625601,-0.500008971789518,-0.855532831289073,-0.943711133431401,-0.865061402495087,-0.853621264652542,-1.01518087259255,-1.24425142456072,-1.30266582199166,-0.962821689782548,-0.228563687053942,0.484316085016633,0.563307008272274,-0.141493663789872,-0.935503170447501,-0.884395503527149,0.130329066910091,1.21239110622561,1.38435034635645,0.552516541503633,-0.463209524391667,-0.714712823846776,0.03058065459381,1.11523010602665,1.66581034074496,1.42502749309805,0.847220522064986,0.486766812898926,0.487381621658233,0.611414608459441,0.560660449467939,0.239159290090275,-0.194378003197382,-0.500618081303457,-0.610003233613044,-0.698328263510055,-0.980152369374716,-1.39038229007128,-1.50908975062972,-0.944209862898771,0.125110263688391,0.906774209777274,0.702514943631396,-0.301702264789175,-1.10397635791688,-0.86283441100407,0.249777435408622,1.25017301357075,1.33624594363053,0.578977212769266,-0.309523045717205,-0.675123996575733,-0.311095538116193,0.582794932178993,1.52378999295071,1.93167329288048,1.54297218676506,0.719445146390975,0.148108969355015,0.168095945430779,0.496647378280855,0.611786545918365,0.275680180737524,-0.322580641725435,-0.790671705025443,-0.856462050170682,-0.615509269279942,-0.515259603227001,-0.94729384929564,-1.76717898678465,-2.30221132611784,-1.91352175768065,-0.61969855451135,0.72368712799895,0.968308495859371,-0.230536816254219,-1.77394290492505,-2.01006391221212,-0.538005487877055,1.22579451787728,1.60082215468748,0.449960941370339,-0.904743022026799,-1.24174736983959,-0.462494141483684,0.715227444315028,1.55107176367821,1.73435721476414,1.4175416562924,1.00040487471168,0.794969516382437,0.796136386568029,0.777470941274121,0.606141039918816,0.379733316863005,0.214331971141731,0.034182451067163,-0.26329450745484,-0.507219359301361,-0.377034298921485,0.101206414015278,0.423467686548229,0.164606200835821,-0.474859123295258,-0.895371594929766,-0.809959461616319,-0.528966010323964,-0.55831163952538,-1.09648302042522,-1.88943527646237,-2.35879439315599,-1.92985150240743,-0.591211245214163,0.777094786279624,1.00340086083452,-0.141653138496973,-1.48183025635769,-1.54438314267071,-0.132066346200127,1.46776846111836,1.85946928053223,0.878335201979573,-0.452347770513279,-0.993392056177462,-0.403257201792963,0.769669415695272,1.68176862225988,1.89360368128656,1.57889404726376,1.15586089689207,0.852985898085347,0.66425661954686,0.552961714144432,0.515994442398626,0.483023906779191,0.315669971553663,-0.0358160001795585,-0.438368454404633,-0.673260527977793,-0.613299349090049,-0.332738987575254,-0.0922815769882775,-0.179110666172504,-0.665531352696481,-1.30480029811234,-1.71138047400411,-1.62948362842826,-1.01534805429521,-0.0404950182147889,0.796442602398547,0.802602406631483,-0.187307419646174,-1.25990801927031,-1.157528439362,0.243672200864876,1.6362112692172,1.7174792240984,0.583161534259807,-0.549672922196123,-0.688427819432701,0.148154582805715,1.21993446666494,1.78239214716416,1.60014858703114,1.02950311912276,0.645896426974925,0.696453172167233,0.902612591053874,0.819388712130474,0.347557077835883,-0.174509284198009,-0.392140803491486,-0.340103254360184,-0.319153731801995,-0.461149656982685,-0.623448127240599,-0.713672447454367,-0.894148022723046,-1.30522303836851,-1.66250031437123,-1.39072120603267,-0.353490431826287,0.709437755694922,0.820043536420059,-0.125947219677359,-1.15634710086257,-1.22295391606478,-0.231477848426132,0.963965902687501,1.40428704776486,0.809677715706815,-0.264314510317122,-0.894326035927994,-0.52618688192514,0.564687078600466,1.52380277909785,1.7070581526644,1.22708717746415,0.685785651694476,0.463671427017645,0.43139966264789,0.316113594873247,0.0921901366807657,-0.114027813830199,-0.294510668839916,-0.501912972821195,-0.648938634098503,-0.645841157962038,-0.678764821015135,-1.03296718774311,-1.60040688044784,-1.84995881632929,-1.40651157359687,-0.483320182816357,0.330042123892464,0.547530819799377,0.0622116295897895,-0.762112892006543,-1.18955006191715,-0.649283438505717,0.582812376671258,1.46570310085614,1.21961311943856,0.166444663789481,-0.633646658627921,-0.474787029823638,0.44385404793311,1.42800068863232,1.9428861932828,1.84834498590899,1.32688704578318,0.785968890782818,0.625217522888757,0.858424833030059,1.04119488643685,0.736246298523217,0.0165338448648773,-0.595845790555639,-0.677412477588604,-0.318677556578587,0.0192194900309138,-0.00192622798287142,-0.307732635333868,-0.582849880126214,-0.648025859729612,-0.629953816612195,-0.775567161389964,-1.15686350173067,-1.62483923205004,-1.99904211663109,-2.14214782987233,-1.86700610348388,-1.05106212082236,-0.0111800862890282,0.47321257329945,-0.10649100719092,-1.20147964297765,-1.53082434558781,-0.463595039265364,1.13093373920656,1.73755534494245,0.832817374761078,-0.601145945896791,-1.16720947012183,-0.397265654608469,0.999630019639992,1.9643499711124,2.03621700029327,1.58619997196463,1.23010309857816,1.13927031596755,1.05957564090681,0.857455795529953,0.682750198968726,0.588494482666764,0.386060104296086,0.0105510984522274,-0.265120226963655,-0.153082712278694,0.255716461708103,0.53823889075458,0.363679502692447,-0.141264896021981,-0.500662799532148,-0.442039899764684,-0.245517905419659,-0.370852722731668,-0.859935046549701,-1.3827516381304,-1.75220003781649,-1.97838912350129,-1.84096220457833,-0.97279940444298,0.363914373726243,1.0697993779628,0.325499078044926,-1.22868857210821,-1.95762953200628,-0.993558972052506,0.787515004604342,1.71304924618292,1.0454332153356,-0.40084881819067,-1.23866482331244,-0.83928560534513,0.342975124063242,1.45004976986113,1.92687478469328,1.72037642953273,1.17551627216263,0.774591579761447,0.732967607926605,0.834965069455966,0.785105747877383,0.569442438457481,0.312498263972482,0.016364926608885,-0.300482114822512,-0.41120104379779,-0.146731120227605,0.249768451319789,0.333177219337498,-0.0062913943463719,-0.468101120787112,-0.803907345647701,-1.08367545849487,-1.38483279155975,-1.44700449896976,-0.920577952027067,0.0424756978482618,0.693855677878317,0.383282676509134,-0.660027467106813,-1.38423242241713,-0.910717316451985,0.481199124708087,1.51666663880371,1.24542823450726,0.0819241996900531,-0.730641448988178,-0.559021448503842,0.13979615693585,0.7071811045341,1.05167693304448,1.34005810581737,1.4468030375963,1.12362265108318,0.504706933682487,0.0756632731121318,0.108363431399768,0.335785707083658,0.306183932861713,-0.0611660015360569,-0.439105703987862,-0.546275339270814,-0.44788659644361,-0.390063420748679,-0.486150400241595,-0.666255223841418,-0.884381015024085,-1.20202815486269,-1.55041848099799,-1.55252800546553,-0.858354724895627,0.270271437637148,0.926143335726455,0.392569424755106,-0.9207159491423,-1.63647951509439,-0.790961256329673,1.01573960008918,2.12891214337897,1.54084222992656,-0.0971225999434301,-1.19913193743664,-0.807386573488879,0.649233488417621,1.96057578883506,2.25764175170992,1.59766988048448,0.7251881435729,0.361580029703363,0.594258335417088,0.895588645761938,0.772052506062668,0.300352097883311,-0.0859361369214455,-0.194102300141837,-0.22299617990154,-0.366382828712432,-0.540382650439447,-0.611770861424737,-0.697220960063309,-1.02295762149186,-1.535971903886,-1.83566709597373,-1.54071603083535,-0.682246989895617,0.223660551800118,0.482992811424165,-0.187011623652764,-1.20597374795519,-1.49315740172325,-0.580918579978172,0.779074652983284,1.40012057990543,0.896431144431945,-0.114484392553073,-0.800495858665183,-0.73262532966887,0.0924191289885303,1.32344103809953,2.27209398832059,2.28685889490106,1.38035755053849,0.323057495196138,-0.0736079809408575,0.286953017525305,0.806427849803945,0.868863991679521,0.410566668772665,-0.146347784867687,-0.425224427955523,-0.448749538521469,-0.440631434077277,-0.448721335641448,-0.359908459910477,-0.210997750246487,-0.242717802230501,-0.585078859654328,-1.03700757872269,-1.29139485748591,-1.36050707477675,-1.59374370053917,-2.10713680649499,-2.35358027575249,-1.63848705580229,-0.136424865821205,0.957734524406455,0.588159339570817,-0.915269628326113,-1.98984714752346,-1.39058924373756,0.476917908820753,1.95695129712642,1.86385677368424,0.574142979509416,-0.58529789201237,-0.683480288624392,0.195856665932072,1.31729302771434,1.98319870340768,1.99909251972697,1.67552491312915,1.39131047349334,1.18038855381593,0.865527589441301,0.507363249897234,0.40151296952821,0.572342855955921,0.610060959123503,0.195281463833378,-0.454921062537022,-0.837644164695946,-0.692888619300665,-0.194787657216531,0.212513435273132,0.139209326829474,-0.401151110052526,-0.954865599269176,-1.09697698696201,-0.89645871065489,-0.772443840350837,-0.98143790301243,-1.39692033263241,-1.6702572585782,-1.44672984666359,-0.599037315750957,0.491654345893003,1.02488384600656,0.526280648191268,-0.470104904769063,-0.838133619965126,-0.0951412033423143,1.05653387228996,1.56574332596472,1.13119810556636,0.302742262455963,-0.200989272154217,-0.0197290600783998,0.753929578691921,1.68088642785468,2.22338842942768,2.09121826146518,1.43941247891416,0.748006510589525,0.444608065451607,0.536304046382592,0.642083238217224,0.450668746584479,0.0324728882639468,-0.348465614685821,-0.523982060173142,-0.4593059029514,-0.254247547630091,-0.185789760214682,-0.4934948061385,-1.04714470535517,-1.47177454540036,-1.62686534481713,-1.63827104157477,-1.43070338377353,-0.731907562186353,0.224732467178177,0.545296600419674,-0.261669972829927,-1.39465752487849,-1.52011889645866,-0.347421272666651,1.0177350888031,1.33660302235392,0.523918503354461,-0.445455594260143,-0.675840574017178,-0.139609776134417,0.612220697484986,1.17355541331471,1.48728969486843,1.53886153874176,1.23593595103252,0.665547553402156,0.198037195505669,0.1332806496071,0.332906983670966,0.360965083230328,-0.0129693667323657,-0.535892866513895,-0.735933509529202,-0.467343137926537,-0.149241448382258,-0.371844809569151,-1.22631933166581,-2.08049957438917,-2.0964675780282,-1.04121341843718,0.358066833300309,0.926803172914442,0.125720763203399,-1.27350029857881,-1.81096619584848,-0.848810153175231,0.714621215612259,1.45633256822596,0.931401699686832,-0.102116260417138,-0.686490787079596,-0.487434942612707,0.228005743283408,0.993670802719939,1.46052529756896,1.54734944221641,1.38562035176678,1.11580104791113,0.799961094482567,0.53587809671378,0.488225967588522,0.664691563577401,0.757355105289815,0.422679164003017,-0.24674186525316,-0.715176849107722,-0.579517898365689,-0.0439771263162456,0.289598340815128,0.0500561140116982,-0.562067451170139,-1.03580412341301,-1.10876170626681,-1.04888533170942,-1.31644995714847,-1.90068200353869,-2.12831552272842,-1.37156334888354,0.0206366085817965,0.79641315731135,0.117736558273069,-1.30876931305682,-1.85193258773531,-0.806633945882043,0.798170136219858,1.45804983814995,0.839805723786636,-0.165787384659176,-0.642483816650712,-0.387845798562156,0.336498050370759,1.20461801156191,1.86880198770909,1.99823697120036,1.56703486957198,1.01897969988402,0.885212759987045,1.14964209204728,1.22873486534348,0.767189501221609,0.176471332867638,0.0544161104343927,0.332927352423692,0.457612401928737,0.236427931095963,-0.00350694002888034,-0.036058689297251,-0.016489259560124,-0.118648179467259,-0.30234950815756,-0.487855916887287,-0.645545056733744,-0.718731035858675,-0.748866651534032,-1.01780061046913,-1.71181263200537,-2.44311618615799,-2.47173311813422,-1.53022501078875,-0.213284196555278,0.543397843609849,0.269972022041527,-0.69601875504879,-1.49097297864808,-1.36641041972986,-0.27250930644434,1.03972489722539,1.56449093748787,0.908424711464775,-0.276291405080128,-0.848015634596362,-0.262313997850837,0.982264498580167,1.96710719063493,2.20908277862132,1.87148989013319,1.39659462700387,1.09872615728867,1.00756918181583,0.958941122600944,0.800472769447254,0.521781223033801,0.221578549145278,0.0135809737359995,-0.0243244922035144,0.0938151040698368,0.187452069390243,0.0126545334801304,-0.410857286457806,-0.701013566303493,-0.57533293013519,-0.314077771449516,-0.476459303770782,-1.19271568619889,-1.98234549368935,-2.23232745710928,-1.67442385189757,-0.541135691258135,0.475735274565371,0.577344173616187,-0.394005330005149,-1.51391329985558,-1.51367045058229,-0.186625017836356,1.25146403095125,1.47386790818598,0.470660927861237,-0.602056123460549,-0.762374470813066,-0.04703852209783,0.852857174091038,1.40288289603296,1.55301409912277,1.47460140630161,1.23240501916631,0.819493519045273,0.390925656503107,0.215027216716366,0.333624915041657,0.469610170080326,0.36597781068991,0.0651286370657921,-0.215042837985984,-0.355021258751295,-0.427036783606589,-0.575105928062695,-0.829372487400142,-1.06773777321562,-1.19566013547144,-1.26021631943052,-1.25622311208179,-0.968000337918929,-0.28967567781594,0.370312067905615,0.394595265498459,-0.241679314930547,-0.80292258294698,-0.593543556174764,0.281449389669676,1.07692603325923,1.16104249905845,0.523042616470206,-0.283265011812438,-0.554900130859621,0.0499278287347787,1.18604968742882,2.03567439430565,2.04106288912204,1.43790373273914,0.9291146391459,0.86203258689577,0.913315002394717,0.628304677993423,0.0802254476295656,-0.214534796961976,-0.0151822543421993,0.26929146691347,0.107539426450416,-0.430776692614803,-0.788763483020389,-0.70873125829262,-0.546440451553228,-0.713055617944498,-1.13651440720043,-1.48117798359123,-1.6367593373759,-1.67431911529277,-1.47660608894652,-0.859356540119897,-0.115416251069965,0.0421551567181569,-0.62153738494538,-1.36626592429537,-1.26593425039171,-0.302245224025657,0.668513765579933,0.893799458913902,0.36920011358381,-0.346424565172051,-0.632630230084294,-0.203032366096041,0.696271982809293,1.46427271388437,1.6850135414863,1.47328107790183,1.19691790125026,0.985835415582956,0.719568111045986,0.426097873046051,0.370671380754242,0.620072407713551,0.797850269693102,0.545559064745924,0.056352338162439,-0.171361816881305,-0.0285298312852139,0.0987313992462586,-0.0569763337262216,-0.251152116949786,-0.129127994817999,0.175767168038331,0.134220191464102,-0.459263422154609,-1.10036538826685,-1.11966936834602,-0.52705322897329,-0.0627687449187868,-0.379245492315059,-1.37518021985589,-2.35324912950018,-2.60415665798292,-1.84480575477673,-0.428719573806394,0.740381616065088,0.8066992790562,-0.238000982669569,-1.40448761534853,-1.55122824776891,-0.466491646669342,0.927653723374938,1.49021114477447,0.936045607983476,-0.033343147663025,-0.53029362890004,-0.239835487878835,0.530115438608825,1.29019179872418,1.75385390281517,1.88988675760119,1.7566370694377,1.41022646586532,0.986478594689855,0.728133728035948,0.772537874114514,0.919466842764999,0.777479106971209,0.266844893089391,-0.151828166662919,-0.000166058348458679,0.514662154249649,0.655661721342148,0.0987162876547375,-0.599131966184152,-0.676751422574395,-0.116879275003752,0.3310580670283,0.039502087228201,-0.79376471891397,-1.42430652470366,-1.43120471853658,-1.14511616579198,-1.17137996676793,-1.58598371538375,-1.75401845781217,-1.06910233785218,0.159255803628298,0.8153189143402,0.201047097854879,-1.01143226702522,-1.42315298387376,-0.505339518725672,0.831439280506022,1.36708015423743,0.879097925495413,0.0953328395466694,-0.297536608451426,-0.177148557281279,0.319346129746975,1.08532871740594,1.86307102414684,2.17414399822862,1.7752182783081,1.01178008425287,0.447557973919087,0.272034620918947,0.296950970720936,0.356033983224674,0.397657144568168,0.303573190690089,-0.0266343606985862,-0.415288640584476,-0.52566155035072,-0.294013685380498,-0.043236507351949,-0.109923529325939,-0.479121502887727,-0.852881666813608,-1.04894614442748,-1.232542156055,-1.61550052388507,-1.97162892398798,-1.7439830442465,-0.781506391218009,0.251686087291582,0.454241854006862,-0.330485980716136,-1.25123829075879,-1.26198578231139,-0.196208822682658,1.04735192744159,1.42605410089316,0.768571297857879,-0.190419854090435,-0.628593081005353,-0.286773505079587,0.57517092842989,1.51039939944132,2.08318553712932,2.03706007023591,1.48350287481794,0.830908000721372,0.450151727390604,0.465469387812839,0.772605673795826,1.06066794256397,0.915993106414773,0.217877855338455,-0.550399482339245,-0.693811224656638,-0.135707612851763,0.40185015788092,0.244328917875475,-0.433026360988516,-0.912905986716244,-0.867002092065875,-0.662050218401284,-0.811304612734018,-1.39633463907002,-2.03441136629277,-2.2184773671407,-1.66778288376552,-0.565496500400023,0.39644964191458,0.414004803469019,-0.623977907977015,-1.73522601863425,-1.65239422786848,-0.229428916113354,1.23455746416053,1.35039905446103,0.167099995759582,-0.961610638641219,-0.953319589906948,-0.0150422039164726,0.962162722619716,1.48381230721468,1.62317376268377,1.54522643870533,1.30708381178764,0.99233457767126,0.755672336167834,0.710189342731295,0.802667874738577,0.809201087762285,0.561447170722903,0.196942970377776,0.0236612830532747,0.127047373944382,0.295321033932111,0.316212883519242,0.172690037495442,-0.00687830557630365,-0.0732071204879051,-0.0258549955199288,-0.0879963511605717,-0.422885209827024,-0.790082497362953,-0.781348208359733,-0.446189422213528,-0.348707745833287,-0.841938950953098,-1.56645715619647,-1.90796037893438,-1.73982507555343,-1.405603823677,-1.09325445589161,-0.63679961562232,-0.0414938909476654,0.188543525428832,-0.341021901919709,-1.12542184060079,-1.12590825112377,-0.0606264367323098,1.13279384884071,1.36859076411338,0.592831185858529,-0.33359658718731,-0.606630163037933,-0.0689711376820073,0.906117317205782,1.75671738812422,2.02868846004153,1.66281968791399,1.07961770585041,0.812054146620581,0.982765189654517,1.2116447037653,1.05087047306979,0.488424530669007,0.00441141898683279,0.0427752278485072,0.430271812804599,0.544250899201435,0.138410642302491,-0.304667733910636,-0.249301817965464,0.151243489488834,0.293167958987781,-0.0740191405825565,-0.595837116042152,-0.806376378908283,-0.63525990830853,-0.418630561897779,-0.552751514258088,-1.14701758391329,-1.89815500857566,-2.24913085982904,-1.78258956887471,-0.636637428658479,0.442337072235566,0.643407465566487,-0.142810839093346,-1.13659771571362,-1.37194100769985,-0.594137528654778,0.585848746036888,1.32271539265433,1.19461761929413,0.394502298985228,-0.442526591313297,-0.63360352676259,0.0455398920878553,1.15627322084535,1.99841372586326,2.19872787195954,1.84679429431313,1.21663492846101,0.583697840628426,0.24411447126718,0.388397354650797,0.805146894784711,0.930492894511646,0.441015493273713,-0.295552342181237,-0.601036645683569,-0.286941049864453,0.152100049976057,0.165768419589285,-0.247321593658337,-0.662221858604423,-0.790279826620776,-0.755529788734556,-0.870547549527389,-1.26996128689886,-1.76267826377272,-1.97739790223366,-1.65773962712127,-0.883372040664327,-0.0745786705584,0.239445206628024,-0.170654202210389,-0.920939347346441,-1.23146204425129,-0.658142129626623,0.411978438080586,1.12697358033587,0.998855764546654,0.27403382765678,-0.404247682977872,-0.502779951666323,0.139048464477322,1.2384032626247,2.17440377587671,2.37654453797808,1.77032470084542,0.84244412113991,0.270228407762824,0.441631100470971,1.14831111101456,1.66175303513678,1.327903451841,0.284263006271627,-0.558400086101186,-0.454805496476743,0.346214813468108,0.898164327899809,0.624247170671972,-0.117123932944683,-0.567742500007509,-0.453045451047292,-0.145267782869467,-0.0935827932290525,-0.385943367224625,-0.849691684986765,-1.29778437173247,-1.62303521072459,-1.84176446186285,-2.03794045640821,-2.09776021894416,-1.64774978417619,-0.613611626002891,0.266658788583333,0.0556307372207431,-1.1131819086455,-1.92370289517737,-1.36331260528552,0.0689101090330226,0.986583206874517,0.685174453163785,-0.253277088611889,-0.804453450574569,-0.59686991824806,-0.0196770557574912,0.517924539281044,1.01919646689884,1.53780457593298,1.81889643318562,1.60522629375057,1.0682576261538,0.643264689318924,0.549362643600463,0.665672213999156,0.766273423409124,0.715793954768238,0.527023354370576,0.335746982185963,0.24936850474219,0.213479093744709,0.149389198583969,0.158778490819594,0.353244841738337,0.518625554693771,0.295833631769665,-0.22931779906692,-0.497307113310382,-0.228032744416072,0.146618847678854,0.0669821292017515,-0.436182883673982,-0.89979192998078,-1.05431085389825,-0.988078649021254,-0.882611879197236,-0.89858506556824,-1.2122179236917,-1.83279971157401,-2.32968212328801,-2.02006035669608,-0.72150186057008,0.713374469230395,0.992907021184277,-0.21389012978406,-1.69420011007726,-1.8508616549773,-0.384959338867774,1.41701923523728,2.02681949261198,1.11865365760756,-0.288055529278028,-0.91433238620296,-0.322592041953547,0.956245483186861,2.08759957955223,2.53832245249011,2.23897808531153,1.51971605696488,0.92539595659678,0.829549161235459,1.10898146980278,1.30639495503512,1.13201693808203,0.695206927039058,0.283135269448517,0.0757240922143819,0.0703230968046482,0.141671676216456,0.156294687836715,0.0926490089455131,0.0174892770162339,-0.0747704714405655,-0.271181884930932,-0.53058396747705,-0.651204391284903,-0.594825439037011,-0.675919906833916,-1.20301348834564,-1.98721864989119,-2.39445484504779,-1.92684781083157,-0.722145659230593,0.466624470030431,0.775824343422932,-0.0721186752984757,-1.35756642183012,-1.80581603800414,-0.795239021627571,0.883059888231124,1.7643246261485,1.20535063753614,-0.0802645688249602,-0.879589070408665,-0.588627062957026,0.46406455012916,1.48706824874487,1.93128713083821,1.83585937684139,1.54669795823761,1.22824428790412,0.838857325901735,0.475681381068813,0.387191555162146,0.577966453911817,0.684698828097324,0.392651737820284,-0.153138025884009,-0.479370474155497,-0.329250288274592,0.00615645990210441,0.0128133353231512,-0.412816731438076,-0.843263322481027,-0.890499266976633,-0.706552130711069,-0.790055507646928,-1.38748474375456,-2.1586175412606,-2.40056367552476,-1.66703814367321,-0.32555952790359,0.540258859140255,0.0765881032602196,-1.32818262924298,-2.20084055721208,-1.45612306464233,0.344392061992634,1.50857118319071,1.03978708084701,-0.346303930989916,-1.16100668772648,-0.760589891233179,0.28190269249381,1.13590179305989,1.52975763838397,1.61781062543897,1.50840762127391,1.20130234878802,0.829113078409912,0.672549605734272,0.846299746364233,1.10711810401167,1.11619444911698,0.826046782660001,0.459785935987384,0.189392816353988,0.0518802186275971,0.11050101822643,0.394174208988886,0.672954712182525,0.602493851934268,0.16181965233174,-0.291958705892754,-0.4595769683936,-0.378720112450134,-0.234775991442134,-0.131607080361714,-0.144294254244576,-0.39041863491098,-0.874102308551082,-1.34245565622006,-1.47429107636407,-1.27487663853109,-1.17381060670075,-1.54163662310146,-2.09490881554302,-2.04224119915821,-1.02712715016498,0.232918433709688,0.557474516451227,-0.379757671358896,-1.55434017075598,-1.61060778074466,-0.330461181297131,1.12090431032158,1.45633404282216,0.569729940439899,-0.525538626817897,-0.837345446960707,-0.225538372944453,0.785008379289501,1.64357192438667,2.07208994721732,1.98728078694448,1.47662292353519,0.893680715825032,0.702853033955711,0.994874529894409,1.2630305389051,0.952001770203815,0.237390778191326,-0.0846147723226493,0.358173334413393,0.918185830070988,0.721937993817966,-0.140811647457404,-0.683604715679363,-0.292674089296522,0.513906299903945,0.788500748453699,0.278480619456598,-0.450019451716202,-0.806724445074498,-0.723876503265393,-0.458593468713414,-0.247125104454449,-0.259996693874055,-0.556407758830907,-0.925379522394462,-1.06543688520525,-1.04360659249943,-1.2500405720508,-1.74006812774263,-1.93601876490792,-1.26127229650261,0.029856888788895,0.903612032442921,0.558407091381391,-0.658604288710489,-1.49625431736628,-1.04551573468175,0.331824292609067,1.4062685800322,1.34360410576506,0.436435921686912,-0.365503820230944,-0.413055210124707,0.228924042306036,1.06998416693778,1.65188878709557,1.79903359369896,1.63367357102954,1.40595168998299,1.24973459314101,1.09494327562124,0.844533336052216,0.582705421856096,0.499447359264417,0.605943670527602,0.658959745178269,0.448627453222542,0.07714203495395,-0.141543993885054,-0.0337576265805917,0.225503186455016,0.263321320394843,-0.091345540956787,-0.568317720943225,-0.751256225190994,-0.622992983822291,-0.595174748842966,-0.942364382481225,-1.47819766445369,-1.87770153087844,-2.01206908677759,-1.82730519613267,-1.22578955191055,-0.357714477169138,0.177336165486201,-0.168695956745522,-1.12437755477077,-1.66067820138839,-1.05919943567047,0.242587390142366,1.10222747125282,0.869792880901454,-0.0569862258250587,-0.764386031567605,-0.674843729877628,0.102922050896715,1.04248706500399,1.67944894076406,1.86481944503364,1.68336781754448,1.27645754125039,0.812951687153828,0.536998536321356,0.648200354115924,1.04178948021385,1.27843880175802,0.973326509076733,0.246797503761786,-0.300503148194388,-0.169960368187198,0.457519220257659,0.855915530352506,0.568179436353399,-0.0682605992171434,-0.398028456724751,-0.275400717949153,-0.102756890490635,-0.155521725141003,-0.285201531879384,-0.345845980845278,-0.514689337571839,-0.961826074855363,-1.46731214627075,-1.68628534911191,-1.67573088647775,-1.7784410814209,-1.94366203857029,-1.60507938807994,-0.555282376219816,0.381508083942418,0.130011129970885,-1.16282647121969,-2.00912516270626,-1.25310499858917,0.510617896649209,1.59779065763856,1.10764582621641,-0.256020624256671,-1.11897091575102,-0.795096478577582,0.304882518303279,1.28788714438409,1.61488543926409,1.42701447363864,1.22049284941099,1.28524652788605,1.4364237467036,1.2767088030492,0.75033230251412,0.331880408786001,0.464758232140338,0.905228814912749,0.969101428330236,0.44555120948801,-0.105020642292556,-0.0898517095500351,0.37920598848503,0.681609988296733,0.447090526906454,-0.0794191117778452,-0.384739353399776,-0.256221985463054,0.0412465427559726,0.104713606037109,-0.174541400882256,-0.560423623478199,-0.784267810383157,-0.803014393565587,-0.765584563442327,-0.839996675297399,-1.11347114988922,-1.56402405189987,-2.00350953066149,-2.06996278679549,-1.48856965460142,-0.485078631760801,0.219768876290737,0.0621062472194354,-0.740363746318429,-1.3569686131718,-1.1319364350424,-0.150172172093386,0.898556642309065,1.29894610101782,0.820582275132321,-0.116588051433791,-0.697256102926401,-0.33168493589159,0.803272122820863,1.91584296937919,2.33608751151722,2.00888786978779,1.35102882270911,0.859896165479489,0.806582833906849,1.06348509678145,1.23189103515351,1.06079766219792,0.678468364780476,0.366612813770806,0.241907737512271,0.217850591522248,0.176272176363615,0.112907377313573,0.109880957667459,0.161612243186308,0.107560495540445,-0.165886522127798,-0.527446314897463,-0.736317232589795,-0.739774268945267,-0.721607408562482,-0.876791501790961,-1.23558748841748,-1.67075337730909,-1.92250035240949,-1.63450744322817,-0.668680781930396,0.435998228651329,0.656771766440186,-0.396949576331558,-1.6883109943602,-1.65416694593534,-0.0579781417197135,1.55587784032141,1.59176818449752,0.217988457683064,-0.963404157674343,-0.802131015804085,0.342067921902167,1.34532667064517,1.60187198204268,1.36074841835577,1.12331663447872,1.08459344115097,1.12895876867333,1.0684215537063,0.798270971238547,0.406218345220471,0.168177750239993,0.256093635157706,0.450095203391637,0.352937542998672,-0.0870139399131574,-0.465452772490495,-0.405942693729022,-0.0283340499088333,0.171137042362917,-0.122233211165231,-0.70731104727273,-1.133169767513,-1.21368445293317,-1.18186781958557,-1.34562913736642,-1.64070862682143,-1.58432269640092,-0.830406143836614,0.164101115047429,0.363221250375719,-0.588430334967844,-1.61922881102351,-1.35633723599333,0.100659493895739,1.21948748589348,0.94053655426571,-0.119112424368808,-0.643934147241475,-0.238119147323426,0.429538710008501,0.779823450617958,0.972620338383253,1.32698096167171,1.65463923344557,1.5643885107003,1.1352311620315,0.824094384676606,0.803959580494287,0.82123796912359,0.701768437411832,0.580098767744666,0.531841017926507,0.36232212596767,-0.0216641021631686,-0.305636668149449,-0.131054338361405,0.346259627301541,0.542823316736077,0.12274855785386,-0.596849482871396,-0.993240889202755,-0.791607435672522,-0.302513078681366,-0.0849809146382053,-0.466829817352532,-1.3420320585675,-2.27812956656121,-2.76529829758555,-2.49468908036671,-1.5594568519724,-0.439422858674425,0.233639073473073,0.0195858114826155,-0.952322891307619,-1.84225734844902,-1.67013649449545,-0.356086061461118,1.01890912900353,1.31716896242566,0.533726666586947,-0.382614464700268,-0.639756712486516,-0.177545845044438,0.65289940069757,1.49448440167047,2.0227725707346,1.99099079514418,1.50177233883255,1.05834304400558,1.07963724413548,1.40020671684989,1.46285059241611,1.02812124270623,0.485803194301585,0.346168256201934,0.590522205141553,0.740392046083411,0.502706551618951,0.107103432013434,-0.0427237385266077,0.117997680018169,0.258183857957174,0.0552827700577998,-0.432348139369031,-0.835845069328679,-0.882580896118087,-0.662821901331592,-0.494416547119546,-0.588937317894254,-0.863927605096128,-1.07062106144871,-1.12182866804957,-1.22881192922369,-1.5990090455918,-2.05192071485964,-2.10079361364611,-1.45384391320937,-0.385998782631067,0.398645340143703,0.337349835462223,-0.43554448351015,-1.10831884691664,-0.912490643513721,0.116314265312565,1.1888721432328,1.58511911303765,1.26755563332797,0.665613388706895,0.162690492531471,-0.0150555214819602,0.309213493132243,1.12981490847702,2.0668960460966,2.54538250930535,2.25351922446149,1.41025222775625,0.580141004189473,0.223328053182238,0.391981842096191,0.776240835146043,0.965057624377881,0.732808081976536,0.213027528337108,-0.218890074306843,-0.3104942489571,-0.137806007028223,0.0556156190795868,0.0891693996153596,-0.0855389255505613,-0.367777662466971,-0.546499647755967,-0.520944632770333,-0.477454704631852,-0.680050802250082,-1.10023839514385,-1.45155039052313,-1.60549656689072,-1.72619721374683,-1.87049995536644,-1.70214453522137,-0.912940653890383,0.122610111080142,0.478570158814052,-0.289608229039845,-1.4111954913177,-1.58122243585988,-0.446555047588456,0.948977856252215,1.3890306885685,0.782784803755448,-0.0386358963697779,-0.405294551925687,-0.221913997892329,0.385914505060495,1.23711027636521,1.96296826436501,2.18890313703832,1.91736401385237,1.466373441918,1.05814485434047,0.716714473825239,0.514952858561383,0.604918352258946,0.914699872122748,1.0635977454917,0.76990983806188,0.214620789306205,-0.180510621004308,-0.241510998507343,-0.135926437910313,-0.0628110367324549,-0.043554211890645,-0.0244500793848759,-0.0528524249577655,-0.263904129812452,-0.687388700614275,-1.14076776551549,-1.41167444433709,-1.52416921586919,-1.68477819527471,-1.92115331408458,-1.92063060498591,-1.38747795978845,-0.535803753090183,-0.0427661625254083,-0.373268644135727,-1.19933914094113,-1.63629046386175,-1.11541983934406,0.027102424653403,0.864592948356427,0.764841976423879,-0.0400175392573201,-0.735039701400826,-0.716576944811539,-0.0547242904579311,0.762290391471434,1.34460278462802,1.59578280547061,1.57855767560793,1.36924596192894,1.04031784340995,0.706658713942294,0.522214940584681,0.565874463232363,0.734497318690933,0.827169201537558,0.741040709581125,0.517920597663526,0.240796122695788,0.00516616316831274,-0.0475009596232646,0.1529329202874,0.424458206519015,0.431779539791454,0.0590906709256204,-0.40571304569427,-0.573404602679857,-0.416428636892638,-0.283095852500477,-0.402396585189834,-0.59524287066763,-0.657259088767004,-0.762099486126662,-1.13226854803823,-1.52883336992143,-1.56103559969938,-1.40080323829283,-1.58972980746682,-2.03610562789844,-1.85490737262192,-0.629730727854913,0.651367592640256,0.603157695087347,-0.731658502518066,-1.74507855517792,-1.15136845923796,0.513074814508289,1.63995475787895,1.39531597354268,0.338322297074251,-0.491304478226346,-0.498276936162663,0.310699556540653,1.46038902127622,2.22460636773946,2.16718973763202,1.59884832591822,1.24115231523101,1.40358525624512,1.70668520387058,1.62170908970557,1.08470634323015,0.533179159675111,0.437922749212952,0.811446220050658,1.1522116530859,0.947736585094764,0.271108399243218,-0.245102396105733,-0.119550021736226,0.416780982462302,0.717878417482389,0.483774309986078,0.00387023251760854,-0.33402970516839,-0.490122344503149,-0.616131429862553,-0.716090044490418,-0.694020845185295,-0.602354449853864,-0.64284428682909,-0.97684556580879,-1.59020047384293,-2.20450137215817,-2.30962235763445,-1.54139710742575,-0.186136886913381,0.829027795373511,0.68352056527228,-0.478368761450306,-1.52666674043628,-1.39510887484231,-0.173173232461768,1.03664467759213,1.31820957689685,0.727001809184828,-0.0666453720739232,-0.498955132030916,-0.362870439950314,0.291959613206817,1.20278528759441,1.90870596153174,1.96787852520701,1.33105652859216,0.479566908135598,0.037935785190881,0.187628180991132,0.543129572452742,0.604540042558072,0.22886618481707,-0.312004655400317,-0.599600133940346,-0.411644379241078,0.0731592684679751,0.408384034438514,0.276122680099028,-0.261012158822371,-0.86447936780382,-1.20854708408073,-1.20122390380364,-0.990093099104739,-0.863666480636445,-1.05678381718871,-1.27961477267086
