-1.59528030837419,1.36964698470095,2.33711510575683,0.528740308827376,-1.51155757386483,-1.80868074354616,-0.780294425119427,0.238127717797867,0.5733807246243,0.402443412227882,0.184375970091817,0.159811602699977,0.212902387109241,0.0451152302246874,-0.472331907551145,-1.04304344436873,-1.12946210675024,-0.538549685064566,0.206223463248817,0.292557051961606,-0.493521945277595,-1.48449305725418,-1.8480452438191,-1.43161700775909,-0.775399266219347,-0.450849027098603,-0.586685039593552,-0.976311958184065,-1.39360998739192,-1.68361913840761,-1.70820479059121,-1.43200185819602,-1.05337327400101,-0.864178666640392,-0.93310695615009,-1.05194663754096,-1.01578011060845,-0.8269130169811,-0.595491106148319,-0.373426018820219,-0.155517878638871,0.0376572372847535,0.157749653147189,0.201772971343288,0.250258504701736,0.401993147945975,0.660869055291263,0.919550774018766,1.08323071039111,1.18163953528434,1.32775937857039,1.58449857386541,1.89472451478144,2.12886771154116,2.17382463038873,1.97256087447305,1.545122924026,1.0775873416545,0.945750491785766,1.4025486614433,2.12535393870922,2.3246954680706,1.56479870416893,0.354352565575591,-0.328989021817557,-0.0613485725519925,0.658533318609735,1.01588859580311,0.669404155138523,-0.0734215350333977,-0.684533305735437,-0.890820039177588,-0.79621016837217,-0.688347595117433,-0.768663318576728,-0.999289961015038,-1.17199552922339,-1.14101698332106,-0.973020576316884,-0.847395256539734,-0.847557184979773,-0.894753825268338,-0.874476848946675,-0.783981788664637,-0.720615413538819,-0.734439007195456,-0.756567380419185,-0.704431374337902,-0.589051900983357,-0.462871380217728,-0.331450111589018,-0.190219187691013,-0.0845555545964882,-0.0530576557423506,-0.0615917503068298,-0.0477873273319929,0.032724737843853,0.220083227483111,0.480057225642126,0.578952137467464,0.21887693159048,-0.531439663328964,-1.05736709412345,-0.731059747042556,0.29175412892832,1.0315104415339,0.653066246921742,-0.605158072321566,-1.63894207799692,-1.582498170633,-0.601089520439575,0.35757396721319,0.477251383890594,-0.247650567727733,-1.1242590302164,-1.45986509631419,-1.13624636627291,-0.562245288511706,-0.193152857522806,-0.16945477286413,-0.330826354943029,-0.435464124938042,-0.355968500433945,-0.146357505748571,0.0556983078190505,0.194057284047532,0.31875035264236,0.453451060428876,0.539446987369367,0.547057754643738,0.551026503987109,0.639075798935958,0.801308290469352,0.955722097538721,1.05143130086533,1.10951331292914,1.17355574975713,1.26120733210392,1.383841832154,1.56679750071027,1.78706205326489,1.92010902594002,1.8313046859741,1.52337025069789,1.15450888444703,0.938124149989287,1.03125688727138,1.4077866956489,1.76596668030845,1.68723732726389,1.05001077382871,0.24707942684909,-0.154916985453264,0.0217085861306984,0.436696526224636,0.635301398335501,0.456216558493244,0.0437700257345394,-0.390628737998089,-0.724890388524826,-0.917379149427911,-0.963808535035418,-0.894893640831924,-0.77252113060116,-0.666174150133196,-0.639584609682094,-0.721457458836031,-0.840119946433199,-0.838600707477669,-0.643375457395044,-0.384960953075351,-0.260720379091253,-0.30949425523414,-0.40536042247997,-0.429683533305787,-0.355988642884177,-0.200981090351379,0.00417877558486966,0.178580143019618,0.200912793708861,0.0330406027962106,-0.155344379923444,-0.0843901667529725,0.310257996688852,0.693257686314022,0.59844435486367,-0.0740061802369412,-0.867935235170853,-1.13126854746405,-0.634869564430691,0.132340871798474,0.362450377230508,-0.278123544778151,-1.28063659112309,-1.80558360030061,-1.52614091955226,-0.855267103773065,-0.397185997275165,-0.38062246964267,-0.652325907725809,-0.983137434114195,-1.21963266715404,-1.25825546466187,-1.05401610718383,-0.684032300135265,-0.332919128986817,-0.159324761112607,-0.163727485486396,-0.205150701765064,-0.150068901969736,0.0247147272120524,0.264083664343146,0.510290908148222,0.725880528385534,0.854901379904257,0.844606426577307,0.743976150972535,0.633047515652748,0.50716348067832,0.226878111126442,-0.423448966596907,-0.768186400370442,0.642456967708415,2.64460997000866,1.69424609102403,-1.59406884038177,-2.55253424142398,-0.516687912612592,0.953433579697517,0.622009298083333,-0.0660940041540907,-0.374486495718671,-0.504722394909701,-0.628875793865936,-0.725074049331871,-0.635791119677717,-0.342127057462158,-0.119094888489302,-0.2618863966403,-0.730850071050225,-1.0827197795916,-0.871497277461378,-0.208589846696226,0.243363672410602,-0.0139370012384401,-0.719766759859386,-1.14508610520286,-0.907260306861033,-0.309272500655771,0.106145381685064,0.125409380919082,-0.0824340446966146,-0.282614606905548,-0.355251958930265,-0.24905680993695,0.023989470921068,0.321687346739349,0.457637581226183,0.421789228272421,0.419710802261948,0.616150675025368,0.901960906905859,1.01900718658145,0.898137428269383,0.754451472690578,0.822093441504704,1.10183535447759,1.40768570357714,1.55051323791623,1.41264531006468,0.956330198390238,0.303061814945874,-0.205303020856852,-0.176999902966901,0.446608312987303,1.16390134547667,1.2274176232831,0.367923213788831,-0.814191535720559,-1.36655172086032,-0.94586043816741,-0.114771706768961,0.347169634058595,0.211841355196707,-0.209119063003877,-0.577626465800388,-0.775487779321999,-0.772581118502106,-0.542316537100018,-0.155496695833454,0.187402022458349,0.297904278416801,0.175365729884627,0.0399501286128834,0.153605581804439,0.556889143891332,1.00417332230372,1.21701199370914,1.18415861903018,1.13964584426292,1.24839761184683,1.39654472396055,1.31814060900429,0.891489870952583,0.332626262446025,0.111091066379642,0.531677804555103,1.28139834899403,1.56046048639649,0.893445730140528,-0.27620487608257,-1.01746501845074,-0.875147057493223,-0.21728991058016,0.279903770044485,0.247802109945799,-0.235275322774756,-0.852894322664554,-1.29244487062283,-1.39930102047307,-1.214666446711,-0.899810035029661,-0.62649980866318,-0.50752329082507,-0.554713887584834,-0.659722892382303,-0.664415149379993,-0.509502770405744,-0.289961501823104,-0.123162290084674,0.00377423674072307,0.203580688997352,0.504765847091175,0.725204755233197,0.585707462441999,0.0268889534008498,-0.584317904290267,-0.677151515842273,-0.0330375259302459,0.868528566550629,1.19058858332305,0.550697304626577,-0.555037028392738,-1.24404147030299,-1.10198997948914,-0.451127760664614,0.1031125979085,0.195125653563858,-0.165706815450932,-0.737279674395795,-1.21981544803647,-1.38818532582717,-1.18442130565183,-0.752169368375487,-0.376518051323718,-0.308182797545139,-0.55452910569564,-0.839318287074967,-0.838907236622032,-0.495276796660621,-0.0664269489236488,0.142973543531854,0.0745401474040892,-0.0556494751734747,-0.0116514792820806,0.225780461883484,0.489364129114671,0.556134852029076,0.308255779779987,-0.238237454809364,-1.05101420212359,-1.33655277659731,0.332491342718918,2.70647672679709,1.98503886017467,-1.52632437655219,-2.96798374615297,-1.03872802732484,0.866848895574256,0.958424918604538,0.240537505418774,-0.36107363647891,-0.608743422413867,-0.520452286936298,-0.312892757340976,-0.153401090620721,-0.0682416674908353,-0.0334477547712158,0.0140196225453461,0.13741874704116,0.341217690200793,0.552980951484704,0.656946683432513,0.610766033119251,0.562820362971349,0.771254514865922,1.24225845453004,1.45291347698214,0.825852815764097,-0.303518309972958,-0.742917790874469,0.12438201567654,1.46827002125493,1.9226493300067,1.01300358028136,-0.461754860448501,-1.26954229441957,-0.915587130612008,0.0332305588902266,0.70594441253126,0.737979187662285,0.319844031942393,-0.214856231930599,-0.645451242642859,-0.83584130031497,-0.679166309898006,-0.200513654087793,0.324960321660808,0.51587267090901,0.255984990484014,-0.128449971055758,-0.176108591721977,0.212774500496197,0.681127106939587,0.850332004367583,0.736848307356066,0.643859532916839,0.748603661971076,0.941370123141501,0.991432589226408,0.721902635002827,0.128459195311624,-0.47230951251787,-0.541365875808693,0.113289916262232,0.89336875687851,0.888694670833712,-0.106178613067949,-1.311209222051,-1.79207928373163,-1.36723311757904,-0.615909991479836,-0.207192496846391,-0.376688443774565,-0.924673410176248,-1.49687251604134,-1.81120156327956,-1.74708767440821,-1.37410307411117,-0.921989294733125,-0.631652340906115,-0.576231324324111,-0.647033758472138,-0.690739507442951,-0.59718692077241,-0.313808869758646,0.0964695673058662,0.446288638090225,0.604013992379124,0.651234013586373,0.745571758604788,0.897643412204345,1.03654660190122,1.20464281610913,1.44502292198628,1.53534838641574,1.1698196447659,0.523388024495779,0.30468624635333,0.939713847340972,1.87359133474299,2.0579556150688,1.14656768269848,-0.0920388273716444,-0.632020646033589,-0.223405938180873,0.530668261393507,0.907305467414052,0.679140977290965,0.0986177415933864,-0.487628459008474,-0.889573324776781,-1.03729000435511,-0.908809801296346,-0.605587584137349,-0.384271650773111,-0.447704187828977,-0.714507888287656,-0.901636516048512,-0.84003323581145,-0.639200305497109,-0.525552585285919,-0.566664096846494,-0.604112542269853,-0.468286568098285,-0.215235771856619,-0.0840259234480352,-0.201128363202591,-0.39017160365662,-0.353007052375494,-0.0260077345561526,0.338367491219905,0.47364861167323,0.390635802950304,0.305564276900709,0.359804979671089,0.511995056493629,0.670056666551184,0.817626019482145,0.983657639481409,1.13745888656876,1.13640242566788,0.805415784794361,0.167880080183283,-0.372901509404334,-0.275454554472099,0.511230115967876,1.27044531493307,1.15143254953412,0.102770604253164,-1.03730399004984,-1.40922135356885,-0.915902799956047,-0.14584324987476,0.258949770000596,0.0697370182819366,-0.512948355261163,-1.11116964372847,-1.4291365708578,-1.38856692534251,-1.11491439963138,-0.814064518329796,-0.634924740594627,-0.610751464766479,-0.682063507299394,-0.74160721638307,-0.688889583118962,-0.507442527521855,-0.294117781180174,-0.16352091567269,-0.123878608742565,-0.0931179586669792,-0.0195975627625677,0.0802178524498257,0.18831351698856,0.305841681464149,0.408966834936662,0.464300974549641,0.493619082910327,0.558357852116888,0.678924907280622,0.81382943233093,0.907156303144608,0.929788298713625,0.902421011627412,0.904796388664192,1.02310726701338,1.22870887399652,1.3102845189028,1.00776367964813,0.311176239379856,-0.364741018683752,-0.436032137697485,0.250032946281723,1.07476489032723,1.12127001298419,0.125203614345636,-1.17084087554458,-1.75158470607708,-1.32819263907893,-0.493122019941734,-0.0105677856463743,-0.156151924458496,-0.705911091668475,-1.30307247356447,-1.68726034554343,-1.71697207793908,-1.40563660202988,-0.965924218385789,-0.677682435065745,-0.649158971798079,-0.757970883235931,-0.821713729303627,-0.756777237181281,-0.578301744794313,-0.332773435260244,-0.0766048675949845,0.116954774044063,0.192034313164455,0.169691101019299,0.161395274744149,0.276131077696317,0.457910545495561,0.522883105803226,0.373517044547933,0.0668107888513003,0.00788007459738085,0.759511114181979,1.69655985549037,1.25150677007516,-0.232583789733295,-0.611271743530427,0.425539705820488,1.1891378205542,1.00462697326515,0.540854507971444,0.269415050321794,0.213879310237775,0.311797381827773,0.480105248513813,0.627448517168565,0.632588715299414,0.369801393958014,-0.131000533651247,-0.567531916530082,-0.521711783689535,0.0933205598257972,0.760167112312028,0.778546798741205,0.0437452773323281,-0.797036843996004,-1.05536227908475,-0.669396369496499,-0.0838536528743491,0.276348899909449,0.249668421074376,-0.111437636235544,-0.581512820685325,-0.837366763551935,-0.691950894346559,-0.274120456061027,0.0943093298816212,0.195351270115893,0.0675910355664493,-0.0867534610684903,-0.0905659139362257,0.0901359143267205,0.34786353494501,0.524735323723977,0.5375646546567,0.448917443991663,0.397894716759728,0.442927160410241,0.516431977388081,0.560851583301986,0.629486194721358,0.777908775542901,0.917533584633478,0.872512326268487,0.569054279705243,0.122284771843937,-0.232234346009538,-0.268063486522933,0.0696248147627277,0.517529490503415,0.595436249877351,0.0572131177306903,-0.751207969339879,-1.17811362499412,-0.956235293614664,-0.441237732586877,-0.134573863697631,-0.175269272510023,-0.39027164813447,-0.636533343859216,-0.88150409586961,-1.02562550445306,-0.894593327734006,-0.491175346958473,-0.0931498162315878,0.0358724641802467,-0.0489468702512032,-0.0772501393255287,0.0938811650275473,0.368197907126077,0.600591290956167,0.755889412496908,0.862694188036639,0.933425029674348,0.991354264875542,1.09858837684672,1.28793416674544,1.49788964292385,1.60512517481124,1.50050926140246,1.16624104018296,0.767527486028375,0.638884150171723,1.00174367502382,1.61563785822949,1.87119775146969,1.39958082609541,0.521235450008358,-0.0629699861762395,0.0104813603945016,0.487194731056114,0.875034498634323,0.914742481865793,0.643923336548613,0.193100327871839,-0.303189491331225,-0.649237269008545,-0.649271958120267,-0.327406756525709,0.00584014269469782,0.02024754279631,-0.320628093419296,-0.773539082577844,-1.09470902905668,-1.22335947773357,-1.2415325780422,-1.27046515908285,-1.41454641918278,-1.72080093574865,-2.11839756559501,-2.46640688837669,-2.72994384929634,-2.95275236279605,-3.10634358765176,-2.9603888090194,-2.10417879036382,-1.32101033109976,-2.94581722122826,-6.36401440105414,-6.62458126158368,-2.54190371179588,0.422721455675479,-0.77945225971124,-3.21090098075215,-4.195178457847,-3.81136853871556,-2.64232865994461,-1.2219139553188,-0.150291471002046,0.374855010132446,0.469868301656678,0.288852694069887,0.0761832700116137,0.256559313878184,1.13229103915205,2.45438432013396,3.55295038943972,3.70359456445588,2.65017152643437,0.700245495813758,-1.74221703669305,-1.83388550992126,4.70981530220254,12.3805951310913,8.31582498539827,-4.21807875888773,-7.74536598476405,-0.142868968134892,5.37812975922102,4.34802611483163,2.04190165711098,1.02282958159505,0.43269953217257,-0.338467526648592,-1.08378909730023,-1.12149047950292,-0.253723743404899,0.803283229841334,1.22901359786967,0.849248801388904,0.117997056438869,-0.411677350355525,-0.295899604783949,0.71155340830599,2.58849300449998,5.11616786255034,5.8207140196821,0.945877087533442,-5.18358602458411,-2.05419256320514,7.84987319807007,10.4178646272892,3.93533916448564,-0.733893668659572,0.238537644725074,2.45245341004906,3.29822369129212,3.04806752014065,2.45537887811108,2.14771438690167,2.08538947599923,1.8253966112955,1.25135263684485,0.593052057511379,0.0606186952349146,-0.383805668533741,-0.876064225344231,-1.36841685167562,-1.66789068308355,-1.70284294734121,-1.64349830880002,-1.74415241864418,-2.07795553340341,-2.46225729646203,-2.67291182404425,-2.68249099913582,-2.6336657933197,-2.63402951985614,-2.66391456719605,-2.66504054905149,-2.63550835517517,-2.612789855568,-2.60866478284349,-2.60190767142042,-2.57398630081443,-2.50151636226428,-2.33083803563265,-2.04067406388587,-1.74130700330942,-1.6167310071262,-1.70015282683907,-1.76401612057932,-1.54490227220726,-1.09367038457873,-0.788485286404388,-0.918435141521224,-1.32371770936346,-1.53496831013274,-1.23952466670489,-0.575567066846116,-0.0126385134094796,0.0479218417607956,-0.373582240658653,-0.842316771213156,-0.897111290147449,-0.449480649771174,0.18683549053865,0.608825536257475,0.643454136697208,0.417340419569607,0.186860685455229,0.124895262289128,0.248110904594615,0.484517285730506,0.749218221715429,0.969361457245903,1.10063992506392,1.14625876051624,1.14789835825315,1.15610526642978,1.20870931090609,1.31746496674675,1.45510363699591,1.55937659439109,1.57500047730951,1.5084805330172,1.42956938741067,1.40354763673304,1.42857005860408,1.44333845958274,1.38809166189835,1.2684246739641,1.17338884218906,1.20336882564497,1.3411182136427,1.40771859943162,1.19540600316697,0.677375715615121,0.100258077209858,-0.157117006387546,0.0870120977178835,0.567155796272565,0.741277726314043,0.322306946093423,-0.41285431027823,-0.92634609046763,-0.954924023284484,-0.661762332499305,-0.364315522836161,-0.259601466098165,-0.373079891962053,-0.61877483950406,-0.860731743632546,-0.987153065558061,-0.967206775797942,-0.827065927882531,-0.601920879628205,-0.356162396550004,-0.203762914135903,-0.216822352645266,-0.31265792875253,-0.306524179493153,-0.108092052031668,0.168777903991656,0.322919811429459,0.281175702969448,0.167720733375878,0.15814947102355,0.300331926287987,0.49798770579272,0.635986892953444,0.675272890542659,0.626989379356409,0.488287594293987,0.255598402800213,-0.000486805946185829,-0.11943802738451,0.0289045196818166,0.356198813930907,0.523890525319,0.239958163795117,-0.36274431883011,-0.794598102832544,-0.747811269760838,-0.422251532349277,-0.218580829563585,-0.275501493331359,-0.444783593923839,-0.577158623785565,-0.662204270611614,-0.738949323587171,-0.791803189724525,-0.754850814605258,-0.592366424912602,-0.362230507463378,-0.183723518146294,-0.134927356664916,-0.187177276597501,-0.232371334570657,-0.167117035321358,0.0286959020312371,0.2709139193275,0.434146114550984,0.459908598548843,0.410557547604301,0.405470276732162,0.490901859833151,0.567432642940417,0.468859092649109,0.166297291299327,-0.104632707497106,-0.0294123638415928,0.387511525114654,0.708668766681594,0.500957489593136,-0.149026799183845,-0.708430774360021,-0.77673762511822,-0.445705126098542,-0.0875172826306167,0.037585149992628,-0.0976075993229092,-0.395908935045006,-0.721072303874915,-0.92079537496678,-0.884178234114817,-0.623351946631781,-0.289281861825133,-0.0859548805299611,-0.124431248580368,-0.320312057732552,-0.448173270309873,-0.336266764825639,-0.0190044648806141,0.301995464383852,0.436195152798976,0.35946497827081,0.235155645432248,0.276350187773538,0.530010476268702,0.784807409357701,0.751705518355515,0.378948960729571,-0.0361634860862746,-0.0999452620866113,0.285508702262827,0.789522028624405,0.932459323895874,0.519700349897003,-0.167493300605609,-0.599027043006288,-0.468710677031522,0.0134065472459387,0.342178206467353,0.239806913250479,-0.130569980903276,-0.460943906733773,-0.62843373854308,-0.664155858652504,-0.57946334132109,-0.386142754904586,-0.2057442109694,-0.193625626084315,-0.341384283267172,-0.454712138053519,-0.367459457983632,-0.125770940919963,0.0802614390312576,0.137717921908144,0.115469593825307,0.146192970675802,0.247694315323161,0.310133642863702,0.267606981569096,0.225383614765922,0.347791867704614,0.629873351892918,0.868776450892675,0.906997313196791,0.826608073758925,0.80575818781376,0.827784298852592,0.685979221621678,0.330236369150061,0.0703476674157878,0.261916206047488,0.797486694841276,1.09974759861251,0.744618088992413,-0.0241089216303749,-0.556353213150787,-0.500084333608006,-0.0880103193137512,0.221746053924348,0.203017866219629,-0.0558226187066351,-0.36050034058097,-0.593251734128667,-0.731111237630567,-0.779486436139028,-0.742560306572275,-0.650586215603233,-0.565140185242693,-0.526137339164452,-0.521403836863195,-0.532840134932844,-0.569623510510048,-0.616604490361631,-0.601556401492503,-0.479771333401983,-0.320522487196768,-0.242370783551905,-0.272749394354427,-0.325128970160306,-0.31476874383949,-0.246042368566719,-0.163512150617413,-0.0667559918978823,0.063844349254065,0.183206360418519,0.215082681770705,0.180046033648056,0.195800652259215,0.312117096672505,0.433345031629368,0.466417244822477,0.474242763785359,0.593517880165155,0.815630268883926,0.922198310203493,0.691813958368552,0.188948136522523,-0.194185532479072,-0.078717820125053,0.471813068097835,0.932020598355157,0.811196323439492,0.158424471566599,-0.48766777346171,-0.645995642237379,-0.335248079031961,0.0279523122050505,0.0979795262097113,-0.102366485246599,-0.334311897943593,-0.469415930261451,-0.56133156876754,-0.661860314028727,-0.721026313718121,-0.684398481156169,-0.579739894643198,-0.478436806025495,-0.425833712485087,-0.408870138122767,-0.372667949470245,-0.303698013293677,-0.280926747262597,-0.355913180355193,-0.408068610034588,-0.267420649951761,0.00976447422359058,0.158784865781956,0.0549962666675516,-0.109987762209744,-0.0845015162578079,0.133171304931745,0.336213932422137,0.379787336890436,0.318670769252865,0.303480743966717,0.404667605062312,0.556344384643415,0.650289359630359,0.648152562047068,0.598668519824686,0.593329258631094,0.714573919380702,0.943640872854664,1.07313304505424,0.828147952129414,0.222158451512552,-0.269726231462755,-0.121537138395901,0.587889062299734,1.12795874498323,0.880216507790531,0.0253669126419216,-0.692144172167351,-0.783900214106768,-0.412666529865563,-0.0345731277335105,0.100707150967637,0.0184360835516994,-0.205927536717201,-0.535157831636477,-0.869649466242114,-1.03137338492491,-0.922403300381318,-0.64105254034755,-0.391386972385038,-0.302821498559652,-0.364577413259752,-0.49374341712313,-0.597569358161095,-0.581958894567319,-0.400470896686215,-0.14131015950352,0.0127438101063467,-0.0208542398556655,-0.118988744866738,-0.106271726044484,0.0278343058207024,0.143739701189679,0.163184187413121,0.168272530606709,0.260645736581179,0.40717002254038,0.4961305082984,0.497642914388051,0.486520341226557,0.525130437223688,0.601268715914076,0.686534754699699,0.786613552386706,0.887277604428779,0.875176137107911,0.599796436145768,0.100817280560658,-0.264489066172185,-0.0961726423720233,0.540659490538136,1.01138608018406,0.717259545306025,-0.202688327875456,-0.962394788239352,-0.970765587291293,-0.415466165088749,0.0604488857102952,0.0699716182582276,-0.27020183654962,-0.642344286230219,-0.861654551435748,-0.92892121543583,-0.909721419504798,-0.83843471748275,-0.719068712613321,-0.576721221922284,-0.47135086586624,-0.444388770077924,-0.466209936353269,-0.456560759887273,-0.359307758876784,-0.195742908205241,-0.047758695577823,0.0183852138413851,0.0210868059291494,0.0475812989301053,0.158124091149617,0.314238035342878,0.413495778957978,0.395347883774243,0.313367407744846,0.30770412458303,0.495040523807922,0.843765250048466,1.12038674190351,1.00945154704295,0.424107535600107,-0.250629080039572,-0.389227823659895,0.208975302087245,0.966701497673461,1.07813135973233,0.400189553192394,-0.429461862575665,-0.753802987892945,-0.523989702660978,-0.143972197807704,0.0455836954026133,-0.00065777193008408,-0.166929379337344,-0.372349273413366,-0.599031910996494,-0.788242657083915,-0.814129973402877,-0.627927810418208,-0.377998500475273,-0.280997307943798,-0.362797089746447,-0.424172696577876,-0.307164430124887,-0.102305095100742,-0.00934524375340551,-0.058867685370708,-0.0815880343419926,0.0545797546442335,0.270706474199179,0.381564818293057,0.325903413826159,0.233045844901474,0.267789850271684,0.459888151867996,0.695417797110501,0.828049547072425,0.768541395506672,0.507676909025741,0.136240548573296,-0.128957564681721,-0.0405342371338001,0.41534972712998,0.862273051817508,0.809175647540187,0.16980016492235,-0.58065411899538,-0.845957612174128,-0.475218535238608,0.1300016044645,0.427492889065661,0.219773489534877,-0.25241949350961,-0.627237565218691,-0.734389332401036,-0.608077168209986,-0.358410165045534,-0.125020572322862,-0.0398943263842924,-0.111961897519341,-0.1960338343588,-0.1565212528153,-0.0215051884832191,0.0901907987029116,0.145365537949436,0.210368142087028,0.312441123991681,0.387373910011904,0.385138750130938,0.356951612906096,0.398467851724484,0.528782131483837,0.638269424412512,0.556708509517787,0.220221029379393,-0.178420935665979,-0.271399237599552,0.110998805458941,0.64202431036009,0.735114007515473,0.168367186954826,-0.625472739308218,-0.981877896279448,-0.665114162515879,-0.0561099195159202,0.263312037513384,0.0551456230047127,-0.423061147168499,-0.745794613213564,-0.736022225750407,-0.544165288658827,-0.399418620359317,-0.379125696009541,-0.398929991933356,-0.342510033652324,-0.18913177472376,-0.042504451033071,-0.0138569302252832,-0.0685689775410427,-0.0502475082260158,0.115286821486333,0.313826539449903,0.396743176437161,0.379483905867077,0.397698788827995,0.479189367799109,0.457009080399787,0.18066197588864,-0.210415629054697,-0.334448049631904,0.0162337439243003,0.551981939154083,0.719393790796711,0.287214334339535,-0.409597168930677,-0.837972024580423,-0.763632001810621,-0.353666917514039,0.0599872129533266,0.212604578260261,0.0131479866634657,-0.416943723245772,-0.798342475598641,-0.883095575451372,-0.646700868880539,-0.285280292147293,-0.0216142036245669,0.0616679111805333,0.0123750187860641,-0.0831147994553277,-0.13388098222799,-0.0587515190030517,0.148352491899917,0.388865827532491,0.54071085557602,0.553043948724203,0.468918313827634,0.409728488170608,0.51092461444961,0.764805410223161,0.916506339519274,0.659288548515504,0.0454105203124413,-0.393406627763817,-0.141690449795092,0.645914554360114,1.17372480618252,0.820602998083132,-0.172608986353483,-0.955601172885842,-0.9460736965205,-0.338956186987978,0.215325581506966,0.284056551904341,-0.0551272684397052,-0.473421057152949,-0.766594598346433,-0.925063192377439,-0.953180351463636,-0.780789477431356,-0.407685802536523,-0.0494496632163764,-0.00248646254131238,-0.314182954975714,-0.66747728231422,-0.681587130298195,-0.308199684988472,0.137626748754994,0.331231527472645,0.247490250522426,0.0988294214552448,0.0554911144232496,0.113793165332901,0.200182320719398,0.297652722942751,0.440988318771358,0.63721202167846,0.825380572943683,0.915690304751069,0.853537058936866,0.631576474500815,0.285524998308332,-0.0362137833347215,-0.0465502643670921,0.428594559158057,1.08657484340402,1.25039115003292,0.572229136408114,-0.448045204410789,-0.90391422048051,-0.460119473198936,0.324384960683856,0.687285343703177,0.436614756411808,-0.0706975663203042,-0.469321782649992,-0.661441317865138,-0.680796095020682,-0.557187347364576,-0.354859254550631,-0.202103119217429,-0.215625362670532,-0.401663275129896,-0.615254291668209,-0.646793615984719,-0.432788090909747,-0.169014904641427,-0.116292122499998,-0.295119973288494,-0.47140765255512,-0.45134571686118,-0.284733423740938,-0.139905768230681,-0.0815324680550203,-0.059807166190778,-0.0481638198252809,-0.0651761752923303,-0.0740189520396038,0.0155029524270624,0.208470578284395,0.376108791692305,0.403578705160837,0.336746684390617,0.318186217770994,0.405221720646995,0.527364086379289,0.617524705186424,0.695391719783955,0.786773754590287,0.821537411975885,0.669495155823391,0.301922675280845,-0.0711915319303403,-0.0940987303662312,0.361392608555692,0.905789073634836,0.9143206930847,0.227333649303354,-0.583062303385407,-0.819948885939242,-0.42414233239882,0.0600105384352794,0.17466750054419,-0.0499968441739155,-0.346565124043176,-0.574402074258285,-0.735504805187988,-0.818196774236985,-0.78048380061806,-0.641196898407753,-0.495881164479911,-0.434435570647662,-0.465555101772125,-0.521567709918418,-0.531274779772198,-0.48248164423878,-0.40791708921153,-0.331545935525048,-0.261771378209345,-0.219229172989387,-0.217003500836911,-0.212642147802729,-0.138120036629289,-0.00319922152661613,0.07992351638588,0.0343164137845394,-0.040165837649984,0.0440900573500282,0.304688269146687,0.52307502889416,0.504653080265302,0.318138090435805,0.196763149960752,0.272106942827157,0.479207870104579,0.670584229029902,0.757043483950147,0.751817898066316,0.704415011708174,0.603696953671427,0.390739741864473,0.100623544020523,-0.0655517517023584,0.0913737082544379,0.497129050883506,0.764439254778257,0.528488594267767,-0.136995815878236,-0.719311282823657,-0.770653364170304,-0.362338078000112,0.045938124866205,0.112545252310109,-0.128957331929764,-0.445030310561607,-0.666566438632927,-0.763537403232558,-0.770844418736973,-0.71099614450138,-0.589411775864069,-0.443723522548545,-0.353072042685527,-0.360705999389999,-0.41792030174777,-0.449860307177984,-0.435620666462863,-0.373700410475974,-0.238534559188142,-0.0497077665580741,0.0824073661698564,0.0696019940269635,-0.0317670742056157,-0.0715696981633546,0.0358715952357543,0.226013817216475,0.354896978419003,0.361978648433797,0.341669876060895,0.413626767692521,0.555186371173925,0.636777855480115,0.60760867092986,0.558156634657063,0.582994469865076,0.667136599862514,0.760029518149781,0.879212043389575,1.02562155871191,1.03915990199262,0.718103247698435,0.152831243388808,-0.207068948258735,0.0135909229294148,0.63667023166535,1.02979343705395,0.743763185565676,-0.0218404661154586,-0.648717975699152,-0.735805488217682,-0.421041668911319,-0.110200467695283,-0.0300975431998081,-0.120039807685506,-0.265467382149318,-0.476139574131906,-0.779816329129641,-1.0463479154311,-1.0606448587447,-0.785784651430479,-0.445971171076188,-0.293099029381681,-0.365636660433995,-0.527694724428384,-0.650127828959825,-0.663615400056831,-0.520450395323542,-0.238487813038319,0.0403124373067811,0.142645058026522,0.0314561435688896,-0.158876256929491,-0.244589613746383,-0.130301814736483,0.138477693532202,0.412419833009927,0.531566214947758,0.43593109049627,0.234914492226058,0.14912742663083,0.312983535939443,0.61848623148192,0.811934612477261,0.766357763484696,0.602611711161273,0.505675178362605,0.47580898252115,0.350787593146005,0.0873392914060563,-0.0876335453250268,0.0693569057605213,0.436606744163648,0.563354817626806,0.17979081145397,-0.439924783339885,-0.766356859959738,-0.61087690272066,-0.275416990426977,-0.130733981879455,-0.235710387239651,-0.420744822703164,-0.568205780073246,-0.684844843838444,-0.78409823619986,-0.821962768508222,-0.753196195306893,-0.595724421308771,-0.421856617371001,-0.299903090670247,-0.249799562278926,-0.245810172921387,-0.248984894659853,-0.226743056161101,-0.147468872609307,0.00861056510696767,0.206509956182376,0.351924458714161,0.371336653313062,0.293932044911724,0.234603222243996,0.294402445481415,0.468344599305368,0.643636067954256,0.717661968462151,0.723927460010731,0.772559728853136,0.837091160207578,0.715216219751821,0.318155879746778,-0.0763313916584301,-0.0444450082938938,0.463094130331031,0.954837015111391,0.86936898315941,0.176310935708349,-0.580254874633269,-0.828333520772198,-0.487537819109613,0.0448640915042819,0.318208470202484,0.171079605776995,-0.263750529331896,-0.724357333151079,-0.950200048622808,-0.815577884661081,-0.464909431243985,-0.22518142583446,-0.271509977346122,-0.449314335897793,-0.504975565681832,-0.390792793499322,-0.242443159563444,-0.152002682681605,-0.0938490092833338,-0.0296945298666385,0.032214119578261,0.0819799386270432,0.127789279090613,0.157266748465768,0.146923012814591,0.135843599874148,0.22700099594112,0.456988547390116,0.680841031621857,0.646746994439882,0.248557903038787,-0.276830004061858,-0.480776728026873,-0.13413276833229,0.478384828391519,0.780248268453691,0.453563291556982,-0.257129106548051,-0.794578867603243,-0.809299283249632,-0.417023141710929,0.00457538868788875,0.172920334212689,0.0377043634755345,-0.299038366798506,-0.656026420512914,-0.812514413394249,-0.643630505856129,-0.27285841982462,0.0027214762289191,0.00453988269549701,-0.152526987669947,-0.217918798258764,-0.0919483035720664,0.103665420477939,0.211031466428333,0.212824440720589,0.21212465704648,0.294155319065306,0.440304369095823,0.563520653162091,0.615763803854351,0.636625547292015,0.649542325575545,0.550161701726657,0.24331313138154,-0.0860138300722374,-0.0455915168833564,0.466366024866702,0.980532007737941,0.899690665695301,0.196802958395392,-0.523127240560212,-0.683150959832416,-0.295280864946973,0.179304907197448,0.36048915566883,0.22066123379026,-0.0594829011338026,-0.318086288471619,-0.476306370650383,-0.508859083749082,-0.425964815113509,-0.2541859618904,-0.0335418353880484,0.142220418678075,0.149692539526074,-0.0153468301577477,-0.163395085728657,-0.0899526228311823,0.18247494427288,0.425150848959509,0.467747178077627,0.367207524845298,0.299490246835626,0.360435133912484,0.509915568124281,0.637793451258137,0.617804268700992,0.364990535843318,-0.0363577407301363,-0.28215138068559,-0.0932303247846448,0.416432427566335,0.746313896952352,0.499573694973268,-0.193715290971356,-0.813866046075359,-0.94918035126682,-0.609834359210256,-0.139271094030813,0.0893748441959611,-0.0782926583914423,-0.526857521847048,-0.991341376726349,-1.22391141048368,-1.11932596007408,-0.77385875211176,-0.437196702352727,-0.342323049197595,-0.525060320919357,-0.79316400895384,-0.87840701154768,-0.65418547012454,-0.256476971375566,0.00616408519342004,-0.0694074750017198,-0.347637948361757,-0.455989661481147,-0.189305306711869,0.234967417647608,0.417519662705593,0.242014921161752,-0.00842641476862544,0.00526725063999887,0.327232798156416,0.72333254044606,0.940427722181837,0.869313798618096,0.528242514632949,0.0527521595909842,-0.253625247097889,-0.0484015080366767,0.65366549802781,1.27651664977773,1.14639099648391,0.253631020362941,-0.630084545439642,-0.730900361767564,-0.0698857337209137,0.634747877921946,0.771455775560819,0.372361336645705,-0.121112960290381,-0.394643344078272,-0.437853734336289,-0.348859869167333,-0.188356084801204,-0.0296162630413213,0.0125393950126303,-0.109465695752265,-0.289400242405443,-0.353781734840587,-0.237520358381926,-0.0509846867227669,0.0309371692906122,-0.0619823626601505,-0.231895133256076,-0.307296460181658,-0.206923809540171,-0.0206339397886514,0.0807336188270471,0.0229874839719691,-0.0983139049045774,-0.129163963797063,-0.0208977310434775,0.1331599578156,0.211590466380803,0.192835778878106,0.162126858525026,0.203736534276482,0.308505209598398,0.3956471975598,0.40889587189665,0.374770600825199,0.370317308600271,0.445327406379988,0.581082120431961,0.712076023113297,0.754940190145171,0.620716154908859,0.287572399600073,-0.0775292360318942,-0.170195184243184,0.135896784408463,0.559954004521744,0.647858506572374,0.253650636621607,-0.312813193243733,-0.629029069232907,-0.560139353556026,-0.302688058807144,-0.119971901533241,-0.102900077055688,-0.184169534657896,-0.31567470183221,-0.525843454051382,-0.77678983485292,-0.890347262332762,-0.730368335537575,-0.401037850883513,-0.159221300990044,-0.151333067218296,-0.303920952113325,-0.442148049627365,-0.442239732422203,-0.283281037020228,-0.0378209979029024,0.150800051561083,0.146849786425466,-0.037809551098852,-0.192197586836589,-0.0892991036392041,0.237490232815126,0.480918239125624,0.400759462734994,0.124828227508591,0.0105883674910785,0.222384669179198,0.54625982033585,0.654898099333594,0.484185954712,0.275360173928337,0.261955698493854,0.412106147899558,0.536282354850153,0.562297177057065,0.57868069056763,0.630419496781306,0.601689942940581,0.35481627631768,-0.0481514621068382,-0.309200100048569,-0.153821595627631,0.320019324234531,0.635162543576252,0.401752872789663,-0.24245809396341,-0.774089254029973,-0.84148806541331,-0.562133568867276,-0.285207844933746,-0.213159629904019,-0.31403534287094,-0.487462007965551,-0.688225272933699,-0.888688366687051,-1.0152339819102,-0.993376795632114,-0.842343896252695,-0.674552804944586,-0.592675092811221,-0.612747837372246,-0.68393261279793,-0.745153690230774,-0.750786774318217,-0.681267509219238,-0.564526032879096,-0.464108519111267,-0.41323348648429,-0.388819409091024,-0.376579811084711,-0.399876056008447,-0.435550783594864,-0.381761065686091,-0.193904547682383,0.00685173673796591,0.0551227513786479,-0.0498529622794324,-0.132151440299784,-0.0456924960634022,0.157568451492784,0.304363827858497,0.325508717609673,0.341529762313796,0.485397757278793,0.679988087874239,0.680795418797348,0.382781147934424,0.0236348536544577,-0.0109403182677439,0.401136255758583,0.947900303473814,1.15554488353793,0.842551052252597,0.301332722786393,0.00688316455438202,0.154613113614228,0.536021927194714,0.841776700042709,0.956025896161283,0.919962382097123,0.772553498805291,0.560949081652121,0.411138098604903,0.439310206277812,0.615626539788603,0.800966597844576,0.893350527156227,0.887466543261713,0.831072027321257,0.771999091963382,0.725707045476439,0.675379431405195,0.62315061475146,0.621796305319333,0.698527506058717,0.757272024379354,0.641584322820079,0.335974220287323,0.0429061773372935,-0.0179240972725573,0.126643917945125,0.215077589168383,0.045899648697769,-0.312342092515358,-0.642850696691748,-0.793947777352784,-0.701645127044492,-0.317358865664697,0.37544875331376,1.00232865161221,0.509758885445843,-1.49304536249035,-2.97985694038791
