3.50641345859026,5.31279158436714,4.31354764307551,2.90846961244626,2.06237123866646,1.32655811114012,0.841181911803479,0.965229255126214,1.53099480436534,2.07514838147,2.2598398215383,2.11453451133963,1.92221280031641,1.8579230227688,1.82818711775486,1.64175849383968,1.24076824148835,0.727643511164027,0.227439332785786,-0.203763838315038,-0.560354824009218,-0.836950691570751,-1.0116014828857,-1.08823590652138,-1.15564454486938,-1.34061364353745,-1.62429796279452,-1.7291729233585,-1.32176897342799,-0.436886558101483,0.353923265035483,0.377359438065448,-0.448821483341993,-1.45453288114167,-1.84124167015037,-1.41394646463859,-0.649249347698225,-0.141259133485173,-0.08313302326574,-0.240186309317375,-0.308812903617157,-0.24287209396102,-0.233758314557034,-0.420454128928257,-0.708165069049311,-0.909551673031788,-0.980602456523093,-1.02043515969133,-1.07510004386885,-1.06408637725098,-0.929748364375887,-0.759072063471059,-0.691376806550239,-0.754350904895295,-0.82247617170272,-0.689090168224749,-0.194494734920672,0.599678031955616,1.32236988232074,1.49071883027756,0.91217895271736,-0.0961302079617756,-0.919317643036355,-1.10045880682973,-0.642432918729795,0.0621395218403063,0.573958151882288,0.717700077312044,0.596759958715728,0.361111268577454,0.0512282333764635,-0.312373252650668,-0.60633033539674,-0.68540878689901,-0.553183907315394,-0.360628363334379,-0.233847273914701,-0.165097972333124,-0.0806185890911656,0.0426091601858161,0.160837407559928,0.227964077732612,0.226458527517577,0.143273959925835,-0.0244711114077253,-0.216645613059813,-0.326252957227908,-0.329696485037211,-0.354788022439707,-0.531319881491558,-0.794139444255783,-0.936066519178426,-0.865651260260455,-0.712126133677273,-0.646490196012732,-0.699888742610931,-0.804472697815203,-0.903910343992449,-0.93813762920325,-0.807447596116169,-0.474118029914956,-0.0759298586971112,0.162935724138522,0.156107119448007,0.0454296363794116,0.0584363471435353,0.302693945352058,0.70112752273251,1.09835603099194,1.39951082227469,1.58742472806079,1.6282343506158,1.45328043226209,1.11263461057234,0.879057275331276,1.04012985823442,1.547312772051,1.99277795517759,2.0176479845874,1.67816003631366,1.33829279031509,1.26140716152355,1.39791241791099,1.5323217366004,1.51501503418068,1.33267553496245,1.06531255076167,0.845886648850845,0.798312939192648,0.92738037447726,1.07659023635548,1.05447953004455,0.815899423064163,0.488874377161535,0.226979711822353,0.0794582106157651,0.00370391552810494,-0.0744528944891974,-0.258862106521014,-0.65876126163447,-1.24749000888944,-1.75696880753829,-1.85820379075142,-1.53456927436845,-1.17863383058509,-1.19261693738086,-1.55047165290145,-1.88605482748831,-1.96040431495349,-1.8726308888859,-1.81071220564996,-1.77653953698381,-1.64890073475442,-1.39719969352048,-1.10091638611148,-0.814670916857726,-0.540136961114613,-0.306544437021169,-0.170877006721528,-0.140456929869397,-0.157845005834626,-0.164264761662925,-0.148101152707306,-0.133494802373531,-0.169602701965117,-0.31234447133611,-0.556030674895865,-0.805343468888664,-0.84263394383802,-0.514222086814883,-0.0722755821171447,0.701829167840053,2.63774935074233,3.85501834421708,0.697517572326108,-4.60478195248851,-5.52726834947406,-1.95829502999722,0.649606393682824,0.572758557824098,0.0915686990343657,0.488820994562195,1.15529773036933,1.00601771618674,-0.326559435653796,-1.97360692184553,-2.72492907055586,-2.28557246410173,-1.34047971199996,-0.665071866493273,-0.469567294568966,-0.506680296230279,-0.479125005744608,-0.224393028791486,0.27699337565293,0.885680753330696,1.33731080195883,1.42373976684213,1.20487637451976,1.001611559463,1.11778684787235,1.5675181403247,2.0951557600241,2.4298492883953,2.48844664412093,2.37428254049242,2.22926041896919,2.07002301223924,1.7649851719705,1.24298807843172,0.749760448330295,0.774063453824261,1.5511639315635,2.61854824624669,3.04315161422579,2.28046100031822,0.785558227154471,-0.376529322886003,-0.527285994574407,0.115723907244679,0.83926830405603,1.13530144318899,0.992684037197117,0.703993086324785,0.535467946910001,0.542308249179313,0.593027277645412,0.527873041348704,0.309214025693384,0.0364817055458755,-0.169073980078296,-0.269057251270086,-0.295609085578961,-0.276050352766575,-0.213652890448534,-0.138084076318896,-0.129232485576463,-0.258817081703183,-0.521889694151299,-0.858375967986026,-1.22552791438302,-1.56786985823661,-1.68951898439093,-1.30198766078687,-0.389730895972065,0.499707858498649,0.580547047413891,-0.394297522715433,-1.78071658106754,-2.60696004734512,-2.44130259456134,-1.62844922344143,-0.810191781326616,-0.400343338925709,-0.444124360978422,-0.729496844312277,-0.952153647309586,-0.90998640716366,-0.652506020002103,-0.430829881761032,-0.457372776797729,-0.704454499319383,-0.951734049353455,-1.02180001785681,-0.924123671169279,-0.764890045979497,-0.601226908067517,-0.446844983403457,-0.363206056578025,-0.455092545435758,-0.75610572717662,-1.11675343753669,-1.19309096939228,-0.639880534064341,0.491470776293396,1.52632360573055,1.59824338097818,0.514522631341986,-0.919958731761652,-1.61982543556713,-1.21349283168347,-0.243586215011573,0.48706852023524,0.611590975922769,0.335796732634244,0.0974721324763316,0.159605114533449,0.449857983698671,0.696285660206626,0.683994001728155,0.409519019519113,0.0434718661346007,-0.222027752546127,-0.297914530867101,-0.213189964312095,-0.058361150285766,0.0646311395582595,0.0728238613018318,-0.0698887295759176,-0.341681594292933,-0.648540105175132,-0.76688859223834,-0.372994088085462,0.641122284824051,1.78942336509262,2.17635020892212,1.34241529148255,-0.130713281908541,-1.0952875027541,-0.939448890731353,-0.0695126856285293,0.678583748735311,0.892845465058051,0.779958869748918,0.711639713105279,0.798556999962574,0.90513687129349,0.904305532695222,0.791148546588751,0.596769320011148,0.329835709371605,0.0440076732817595,-0.138027847331572,-0.148353197093474,-0.0705781190407029,-0.0410421827462004,-0.0956183535261083,-0.202531620132043,-0.401139550502581,-0.725560080530735,-0.928234423811663,-0.51590231859432,0.651546412430731,1.8661405605141,2.04486898393781,0.873952326686078,-0.731012121046146,-1.50801219524578,-1.06557601132149,-0.0642692041029316,0.634787372161453,0.728404527495395,0.470919076394606,0.257446184604237,0.308729781531624,0.573764350641347,0.810872610707858,0.810952007919974,0.579442229677105,0.287108833337156,0.0829036569039843,0.00389973874649202,0.0210113609981395,0.0942037711626869,0.18784051566752,0.27305466411201,0.301043498269671,0.167392228657899,-0.210978085588207,-0.696520271223154,-0.863242638891436,-0.302879895219258,0.86726101500432,1.85526406546385,1.76733266682878,0.480916083378508,-1.11996149658524,-1.91175142971929,-1.53034188059828,-0.56718567383633,0.124742884889743,0.181566629229374,-0.157339647906996,-0.46740202914324,-0.535962054118996,-0.421641062580315,-0.301161336475121,-0.327235160242712,-0.534699829933278,-0.78804691389644,-0.861382824291279,-0.636899089810569,-0.208671371473274,0.223975253850356,0.526065329721324,0.687800138145491,0.772877236815424,0.8345427258426,0.86460289810922,0.807542566168244,0.612256202506102,0.263033596247044,-0.200849393297824,-0.619989432046846,-0.674306339483477,-0.0741685426050859,1.03081342018132,1.90113482531775,1.73643714446604,0.485776423844707,-0.999318304934489,-1.72965118629158,-1.43239874560604,-0.627133023911297,-0.0147498652102433,0.0869290971652348,-0.190482545629743,-0.552345489202415,-0.811495225287146,-0.949561454814103,-1.03274622058921,-1.14631128935708,-1.38168640808921,-1.76597373804843,-2.16281059400236,-2.33829916329822,-2.18934805631614,-1.85226050314863,-1.50750878900113,-1.19149184966598,-0.887793003869145,-0.403385031999787,0.653344228541896,1.83158692253963,1.79859317561497,0.638827133657386,0.123649153510747,0.849701013096548,1.71476471550116,2.04450233062161,2.01973114025678,1.80155736345471,1.46626652624624,1.16548870193719,0.972288986909809,0.782142511275797,0.398940496353438,-0.230697599445417,-0.818773907142703,-0.857152595536759,-0.0832713796024435,1.08841168814647,1.71703172014383,1.13169986777785,-0.379491210201586,-1.76840315846667,-2.13273843230623,-1.41366991487953,-0.300570785505702,0.423163600722005,0.45348878384334,0.0323511169347286,-0.402404372529911,-0.571753252335713,-0.461935603763865,-0.251014083527161,-0.165137941099983,-0.29482612981882,-0.4966187294099,-0.526485874052032,-0.282220895376158,0.133250748748047,0.565871652620824,0.934202903146455,1.18924426454492,1.26474391234547,1.1506445036716,0.956652360404384,0.807936424803789,0.6888270516821,0.468011627614294,0.115575212015199,-0.129192133924383,0.112104379266454,0.938986971885797,1.86414857821875,2.09598731462712,1.29447774673424,-0.0181752795482546,-0.931499862176768,-0.975427548215911,-0.392695971800791,0.26292941488292,0.59435024010382,0.50819187736102,0.156480068281428,-0.185235581507286,-0.311295486819199,-0.249903754859976,-0.205809632289667,-0.324876312513122,-0.556537210944127,-0.744364473096894,-0.788923489420119,-0.710053717732275,-0.604351286915442,-0.552754928300705,-0.527230758106449,-0.40381818585045,-0.1335752383723,0.113093823097282,0.0602262824118599,-0.377865331763716,-0.932942583160055,-1.12831200792839,-0.64357350559084,0.347668911662731,1.17729454572749,1.16647752512632,0.249823706649134,-0.908880451447302,-1.49695706443368,-1.23705192832108,-0.500844596643333,0.132000580835253,0.33263349204131,0.146057319380037,-0.153023869900992,-0.288437658556983,-0.186193908664351,-0.0207977581295585,-0.0142406219399459,-0.178246454748097,-0.31943606402322,-0.289853993022349,-0.134413479794477,0.0177977362987491,0.0990121499340138,0.102663489716919,0.0354168741651533,-0.0649053238400587,-0.126195504809376,-0.134041326546809,-0.196592289007431,-0.416756360695829,-0.664111220815211,-0.584554928989784,0.00996436868956503,0.776980840484756,1.05453067737716,0.529723416885934,-0.407392340718269,-1.04771830939228,-1.01265714416471,-0.479668263380154,0.109360671160088,0.440139401642551,0.474185108720552,0.352800126204531,0.240513392523283,0.233105187977414,0.330188063887465,0.43941252251093,0.429028717367136,0.246287411880997,0.00790787378663734,-0.0820504676100183,0.0582161350307801,0.302408941878353,0.46609292839253,0.485078691448649,0.40250806363336,0.24321934070684,-0.00697639141057305,-0.296037003870653,-0.450439142397308,-0.274413321168576,0.274563916371308,0.972844419276557,1.39029178911678,1.16860653542034,0.360216842260857,-0.531384160045505,-0.951481765683002,-0.756287054266699,-0.255632411742565,0.14589697277041,0.27211432099883,0.185604404602824,0.0234198260457874,-0.0971546367256335,-0.0949714003928483,0.0176933896882644,0.0960104321670242,-0.00714759595428341,-0.24102021450833,-0.37359897549519,-0.250628142960734,0.0325741315876254,0.267401362549169,0.371670565035592,0.417099716814469,0.464938832104467,0.476064697703189,0.383930391157212,0.170123508677213,-0.134763777858723,-0.41495011290073,-0.420307923062844,0.0631807686907345,0.8612794407713,1.36867538360396,1.06891092516287,0.0903852849894591,-0.883474057762661,-1.25148260526399,-0.959825202013937,-0.39702662913108,0.0120039254486828,0.0849748334127549,-0.100518647674614,-0.347920579258844,-0.50431824153973,-0.550355359560622,-0.570106256796978,-0.629763390530346,-0.693509777018416,-0.686697895915368,-0.610228595579207,-0.511233066324913,-0.361335821903174,-0.0887417814410479,0.252411911782529,0.477108552937909,0.48612862515506,0.385157210573007,0.336178810111294,0.376718587209425,0.430034428989427,0.402840931461556,0.21674144240331,-0.152457538154965,-0.545068918471812,-0.588293577350945,-0.000587594433054385,0.977475339748721,1.60229448402752,1.27613411255994,0.176308142699047,-0.885891395567863,-1.23012578910452,-0.843283452686242,-0.215705133619754,0.177042381641373,0.187177013163198,-0.0535442090091108,-0.336669252627959,-0.525230006710175,-0.595906981507989,-0.602109545258159,-0.59713071352982,-0.582582291903934,-0.530821230217745,-0.439975802849515,-0.33781521068652,-0.226700144569531,-0.0489107853378089,0.264169003386586,0.691795980925088,1.0846744193172,1.27149053796189,1.23444769444033,1.13762535234966,1.12786968413295,1.14708425947794,1.01666893852891,0.672051505555005,0.220772411421686,-0.190382701899099,-0.426934921063493,-0.305990339306506,0.291652339906982,1.11600765191464,1.52503656065089,1.02836656521792,-0.131417551434808,-1.12251533902059,-1.30582728176198,-0.773041114073656,-0.11167097353333,0.203652176497052,0.118144852534083,-0.15600917420094,-0.411707443982291,-0.542528145431353,-0.511870628794827,-0.369299965900385,-0.279111793379945,-0.402485894939073,-0.699993026935038,-0.922255174736536,-0.842287972407377,-0.458796157708724,0.0354596556559946,0.416772879843638,0.549237624619341,0.443333845405733,0.268093334078099,0.239399824021772,0.411334936943662,0.602448967000328,0.574226595699388,0.247167131703526,-0.263880519685064,-0.71852135406137,-0.816423876878135,-0.365151212187517,0.450556734602585,1.04276294963925,0.866305496404868,-0.038996581169899,-1.03098606171455,-1.44223618674111,-1.14781073351693,-0.567949773709266,-0.198783401261323,-0.203043170412389,-0.407349955826612,-0.579014993853616,-0.62999935348618,-0.58954007052439,-0.499884488003348,-0.414027345772992,-0.427522596004152,-0.590311602959574,-0.778477110649945,-0.752532857682252,-0.396646116912607,0.136422021602668,0.547883602454115,0.648749560093135,0.501401260033132,0.333992046554365,0.315861803658627,0.413177145588361,0.468443473668454,0.381180979780514,0.173147063168393,-0.0410405146176858,-0.0554793653118178,0.330055170759167,1.01527249344599,1.47807401544633,1.20916382939081,0.302999287187364,-0.57210923077112,-0.830359111169594,-0.455854179357382,0.144548202592377,0.564008276516888,0.620433610718435,0.372103200418806,0.0643052172657969,-0.033409419768943,0.133653535958052,0.349048501881992,0.362123566582093,0.156708241207227,-0.0438712279897865,-0.0151025757254169,0.247143530659977,0.532095476190898,0.622737178798499,0.49458426604101,0.322671856927127,0.307257416837947,0.475496138015369,0.629214203063024,0.508016000349136,0.0562420224852078,-0.443690677177273,-0.536613818210657,0.00792198323701119,0.884019410795619,1.39781214682734,1.06630511881975,0.0959484901256567,-0.799011391569031,-1.04988060818466,-0.667654389912155,-0.0933730452502254,0.258460276514472,0.279350517822754,0.101297471478363,-0.104315509615098,-0.229977455270295,-0.238001738841535,-0.163750273965698,-0.104050000235202,-0.1479425699327,-0.299991583354495,-0.472161944362583,-0.552335790065766,-0.496776558375228,-0.36660915244672,-0.264097706472864,-0.235624622464023,-0.257914646422407,-0.31545599770684,-0.453145855829114,-0.708743668478079,-0.969617716745951,-0.94559584837949,-0.422933139313193,0.377876253853869,0.829004769878749,0.461274698935915,-0.512918286578992,-1.36567625860081,-1.53396183228376,-1.0615346481351,-0.427691130251709,-0.0689154487955179,-0.0762138922051272,-0.255480102665318,-0.389131050670038,-0.406911664669303,-0.344440382213648,-0.238806199151577,-0.127363514768867,-0.0869875844277871,-0.168695265182171,-0.285754480594034,-0.255791364892447,-0.00478667245730772,0.325758941575617,0.53209523013172,0.561585981826543,0.505441709177618,0.429180430028679,0.310810541169425,0.127507632684132,-0.0832439592531577,-0.220232754350973,-0.111862514343914,0.377002905623333,1.08308940252235,1.49287791255368,1.1768378268456,0.278401798172743,-0.580185661599284,-0.882794067339733,-0.614787307309759,-0.129343735660186,0.219793284181154,0.283382328024239,0.0944441572438441,-0.220097418301373,-0.489244134719263,-0.554836635555898,-0.394119630814021,-0.203972598729283,-0.258329546516596,-0.595320682545962,-0.902747886024243,-0.812971367252289,-0.297202019202362,0.305574929694214,0.648931140166304,0.712410917733527,0.762049178171517,1.01965402837964,1.42154846297433,1.71636364162788,1.75375979993608,1.61956168401368,1.49395796195289,1.44270072307296,1.38539981873493,1.22555816912594,0.942203475925093,0.562966602692839,0.156248946569191,-0.0785470941852346,0.161548179419489,0.940545784340636,1.75838932454865,1.83470218705971,0.900986595947981,-0.420434469112596,-1.19631066617755,-1.06527898689774,-0.430619899674529,0.0882746218373041,0.187787574909773,-0.0663488888064828,-0.448054848001341,-0.735845176123989,-0.821826927506946,-0.784151273918162,-0.806775292843036,-0.974105409617065,-1.1907466340399,-1.31567957869759,-1.29651631138331,-1.15491245428976,-0.927026085453272,-0.654776457014035,-0.379896848914912,-0.120524794171881,0.111870152611566,0.269067597123148,0.289811966746003,0.184004554832166,0.0429326288778457,-0.0604098764155526,-0.134348585549868,-0.218698989735348,-0.342289220224091,-0.541240571282113,-0.801092612182146,-0.917208175893907,-0.566337829234369,0.288083119249125,1.12712856579606,1.2568379804629,0.542924496989605,-0.371430497828421,-0.712764310994996,-0.317305679669842,0.361772141076968,0.601864846081115,-0.0455361069147487,-0.825011698210523,-0.430625185336626,0.643769640865008,0.595605798318229,-0.685420590885754,-1.79695497282414,-2.17212538187907,-2.06915857685174,-1.55169278688898,-0.73140234890453,-0.114368134369754,-0.201239615034153,-0.938926365521634,-1.66773430872906,-1.71376178512595,-1.02091821361321,-0.125946484381009,0.400739935438224,0.401521086744237,0.113711988775968,-0.130454537601765,-0.143930756884842,0.0616807392009003,0.343507536518923,0.536510892120214,0.551016096107882,0.417199252393212,0.267936241298359,0.264721217101431,0.477117807616672,0.803798663114872,1.05228713873853,1.12087390318426,1.07252755524861,1.03026504592119,1.04327771660933,1.05075747545799,0.937254143559401,0.653523041719473,0.347340563243825,0.334464413273162,0.807922620451416,1.53031119994254,1.92999266484416,1.62031757093943,0.793714488965687,0.0315819961682011,-0.231333190038445,-0.000899556790971847,0.415077343011579,0.702204679272616,0.722968073376788,0.54381841924252,0.344939374099774,0.263342479631856,0.285056822793005,0.288744597093866,0.180745776164911,-0.0301107910067161,-0.257167722917035,-0.386031360451123,-0.322900105716944,-0.0682183074343394,0.231860348391741,0.37651444411672,0.315209255638028,0.198294063876513,0.174171000418293,0.219025672667513,0.204814498673405,0.0902999768496277,-0.0946354252303798,-0.375373579993408,-0.317939136973523,0.88633421387407,2.26691684227703,1.34213656323955,-1.41105782580164,-2.60105804933754,-1.45108098518527,-0.197419205527006,0.104431794655194,0.000777623729192775,-0.202373905917046,-0.491622614716773,-0.758912539809374,-0.931436833411844,-1.00058904949352,-0.991385688019858,-0.949770524433308,-0.89943929975785,-0.841795249482355,-0.773043123815113,-0.676442753237863,-0.529957788970841,-0.35260553217397,-0.226623811356271,-0.228375408989064,-0.337686010731736,-0.448547394324097,-0.471342965929319,-0.421739374083467,-0.424578833720882,-0.606089353510902,-0.918471747775221,-1.07659096990414,-0.774057095191438,-0.0413470993188291,0.654194341986207,0.761414715453563,0.139073553435758,-0.809239162525004,-1.48419245041748,-1.55956527165382,-1.13989872156952,-0.552347814164989,-0.0726875557620854,0.168755950790612,0.149639862106839,-0.0682635659648674,-0.347533004936178,-0.541786560822913,-0.595289390428661,-0.55955421390236,-0.48980366983394,-0.356008853858792,-0.103605315898801,0.226252816960796,0.511983216041072,0.690888836434799,0.823125575806086,0.994069895003808,1.18438617704149,1.27327447538081,1.18478310036519,1.00516697828872,0.904821869114463,0.935993748772736,0.951813879401003,0.755079774124485,0.335515996147162,-0.0254088868840696,0.076854743189423,0.779830495052526,1.67437970533532,2.0221410775252,1.40806247075227,0.204938597255593,-0.705407268199299,-0.736603058427309,-0.0899261764705456,0.561984908063171,0.759377035491362,0.53667519196381,0.173603959028546,-0.107675285333169,-0.222011072695629,-0.204120809282652,-0.172073815206555,-0.219045962695256,-0.329316722385602,-0.441237435140013,-0.534427674648041,-0.584601430123279,-0.497383683128088,-0.192546398171198,0.259336881838248,0.665763249941401,0.886585287797321,0.933082956483885,0.903203378740055,0.873960253957527,0.863136341537484,0.848814209579919,0.793329846681615,0.656488937081914,0.419180229531424,0.118032947623686,-0.148268544644978,-0.246583131484869,-0.0528263125307917,0.431455206468847,0.917614460160633,0.923840858334292,0.250803720042994,-0.6922874736372,-1.25092959564338,-1.18274838080645,-0.782780452454619,-0.441174718812693,-0.301511673211144,-0.324019742761314,-0.456449124873828,-0.657904113181678,-0.849957277904026,-0.927482194349751,-0.837047411440245,-0.652028922200159,-0.547969584966666,-0.64328992786447,-0.843370126094777,-0.890119355758018,-0.606122239875516,-0.0838578761470687,0.375216441119455,0.51251905108834,0.331514154048619,0.0882453504515587,0.0411854342612296,0.191211503943434,0.29577496271087,0.147752566693679,-0.209697418046898,-0.548495671182823,-0.642425912723555,-0.3680957298429,0.219953826828413,0.793414300091759,0.87689854578364,0.292918170796461,-0.553374292394699,-1.02135556190692,-0.869169734537553,-0.407635397500201,-0.0641188150734326,0.0251733783137065,-0.0154816641034734,-0.0507194956627646,-0.0570186409334066,-0.0733141320180578,-0.113058772255856,-0.143685787559614,-0.146610404563063,-0.162982734840923,-0.231437604282241,-0.291118980305369,-0.212201614682735,0.0508784552912909,0.376560589812024,0.576630900851158,0.560107192539054,0.388889626005818,0.21147560473965,0.15310790910689,0.204879101510689,0.191788276875144,-0.053278329895944,-0.40695082822737,-0.453803288150114,0.0667174943257634,0.836483170029054,1.16256865795539,0.672295453462923,-0.29843166671209,-1.05200257906798,-1.15576854194514,-0.694044357093234,-0.0694393577321691,0.307495676075993,0.237844307688423,-0.161844038690243,-0.542736171911822,-0.606692906475198,-0.361445712650909,-0.0863621799443092,-0.0447429913010572,-0.241670580889869,-0.451983479210393,-0.448680520103977,-0.187312343474086,0.192878200477913,0.495434782787489,0.612111585830571,0.604804772078641,0.639902451713393,0.792312912444796,0.936852733679524,0.897156700021884,0.670501673801682,0.413734798137883,0.226759096474101,0.0807452009126929,-1.42165367379258e-05,0.164562887807826,0.664907403965493,1.19951457962224,1.2377064313176,0.588904652694482,-0.324404718602967,-0.879110939294418,-0.837051916685064,-0.429218240521428,-0.0055826173947651,0.224558547492278,0.183357237371003,-0.128012936806233,-0.588350242969251,-0.949544039276407,-0.996193387524113,-0.758306283299883,-0.516824983976033,-0.544677944843141,-0.841919253171909,-1.13596929738488,-1.13749129509208,-0.798017866475508,-0.321378122245443,0.0594594787198411,0.275540820770657,0.407103309968977,0.56315618892212,0.79663894169038,1.05865681636672,1.21374258402315,1.16790567016175,0.988779222112035,0.836627685964679,0.780500393330764,0.738174292984383,0.587825472580802,0.295863245366623,-0.0377817072465854,-0.204022892572741,0.004061995721215,0.575278751108293,1.14028090123589,1.18851026381314,0.554203647348645,-0.365213463466822,-0.964937045771836,-0.969301273270951,-0.575368257187246,-0.161441777246855,0.0354294875967048,-0.011488947179903,-0.225958013732404,-0.506751560200651,-0.741012540336661,-0.853657415900704,-0.872480418825247,-0.884696456201828,-0.926811365283348,-0.976020432000934,-1.02385484974311,-1.06113105944527,-0.996522770470694,-0.711355324136794,-0.243854768268834,0.175697710531417,0.353188529617316,0.346345050866671,0.386467658795303,0.614461943569824,0.943595480177052,1.15692564670121,1.10245097065615,0.823237533481402,0.532092720588403,0.425757530387029,0.477235793693792,0.431429625366339,0.07797065829189,-0.434376583472889,-0.627522897071369,-0.16805024465074,0.678270971161629,1.20229779510319,0.92625202212236,0.0418492181352877,-0.835858424004971,-1.22617068985218,-1.06624717920658,-0.603834377818429,-0.156784654464483,0.0560290699963533,-0.01615297980435,-0.267398234908089,-0.521787400539876,-0.655789521241451,-0.668485102005173,-0.64083119040253,-0.636847293357984,-0.66466046281,-0.714921449132588,-0.769253124651901,-0.756118489197118,-0.579268570930374,-0.234766722495627,0.162090876062722,0.497479798200842,0.735816703598047,0.861624470526844,0.862824755667098,0.825297645676255,0.908128436133009,1.11238709271719,1.19107293634331,0.94804088099536,0.538489578499025,0.274566812977889,0.19809116606744,0.101689450995139,-0.0347823316508496,0.067638858641487,0.541963332820247,1.03925937450805,1.03091406450275,0.386776518113578,-0.466836931283643,-0.957014325041039,-0.867166952330841,-0.442407825160946,-0.0847365443850535,-0.0103767890389089,-0.165167148946004,-0.36572650090934,-0.471397617472753,-0.463380323911546,-0.411535866633946,-0.380429482151436,-0.381600537290422,-0.415403327476169,-0.494856326157991,-0.578983646995232,-0.547427919973974,-0.321105200380323,0.0316721139112459,0.371571501390524,0.620864953391446,0.767184584971578,0.808269608080233,0.770503778069037,0.729745910009718,0.735259003805573,0.735975723213002,0.637057938704151,0.412748040155308,0.123087987403089,-0.148320604402907,-0.305884062102495,-0.223590772640929,0.151298740762685,0.623810642498536,0.804076463257896,0.460212601263772,-0.220780695218542,-0.806206356904868,-1.00733663559273,-0.838444542816715,-0.486180066692913,-0.16171823804728,-0.0476418178305156,-0.219833000871972,-0.544280370908716,-0.74390268668283,-0.664137518943883,-0.438262325169352,-0.324213184523184,-0.416686552580146,-0.587381788211333,-0.663979973564482,-0.574980280541861,-0.339713024785457,-0.0252533806275018,0.261242039363475,0.425863553003764,0.482909425686542,0.537086378907535,0.630915164734834,0.676911737545653,0.58845038687084,0.397006488049596,0.175958136112256,-0.052804492388247,-0.231914266335914,-0.181201038307532,0.230998427325197,0.81912478096698,1.12307207613993,0.815783032824871,0.0420877375365696,-0.69798846659529,-0.981872541869438,-0.756339161218799,-0.283350656250443,0.0879134156518891,0.122048207769649,-0.184937460418098,-0.611658462960337,-0.873862735587609,-0.842635009778254,-0.632398333498008,-0.479886527876072,-0.529926196231661,-0.728595698429248,-0.900427699942977,-0.896368946459184,-0.681722678241455,-0.343795792970035,-0.024788204926068,0.206073312319963,0.411093497934475,0.662276760438661,0.898833593208127,0.996866815981832,0.94845039429006,0.862175989532804,0.798600854350259,0.712571258642352,0.568080985046035,0.412448245219531,0.295336603984538,0.190392710275964,0.078076810266706,0.0689845331634217,0.314543118507339,0.735865187542621,0.953621460121647,0.636445103362395,-0.096007559800757,-0.74018915221057,-0.889272562364124,-0.564773858858172,-0.105409381544497,0.141696201592004,0.0230823983450022,-0.373355298623453,-0.79311728671818,-1.00576903928008,-0.988375328214689,-0.905195429173894,-0.899981427260785,-0.962893577120374,-1.01595497732438,-1.04020990288051,-1.04838857096101,-0.991500062848115,-0.788261043312815,-0.446087162154916,-0.085441021364754,0.185972378380015,0.392511450476548,0.641636659731072,0.955270572443416,1.20401834624592,1.25469654129684,1.14744352815836,1.0532979716059,1.06129528907375,1.08421628274722,0.99005181498544,0.752060580853525,0.442763078261051,0.166308318315381,0.0618196565617127,0.288596641503712,0.854940751914405,1.44132656603701,1.55329173576808,0.990797622221615,0.115996634548315,-0.463883520017007,-0.467010795726852,-0.117093247421981,0.19222630984372,0.279251642158422,0.208735007964143,0.0827469394318184,-0.0853418025381514,-0.309426513323965,-0.540845190189398,-0.694882680639852,-0.751986277354686,-0.790520487509267,-0.891966830642683,-1.02784655758158,-1.0771745196662,-0.955292498988026,-0.688591021456017,-0.36682638880697,-0.0735835394763885,0.138610362125311,0.274870112531211,0.414021442656997,0.63062726919816,0.885361288056706,1.05862964972888,1.10522535417825,1.10097418213149,1.10865985461233,1.07383036135759,0.915073633353721,0.670201420188909,0.469317002683642,0.360111785070092,0.235993583386123,-0.000467593349199405,-0.228525698903128,-0.167797385806305,0.281327617187458,0.815815371105646,0.962756371847704,0.542497689314825,-0.165579970834728,-0.702171955854034,-0.800012553403349,-0.512307621572461,-0.0982936539630103,0.170520250027574,0.162789503770993,-0.0716079638903041,-0.379056748018809,-0.612668453845033,-0.696202807402763,-0.649017485884451,-0.588940270682137,-0.677764171714803,-0.984915622604427,-1.37652492947196,-1.60947423932144,-1.57106511708086,-1.39754642148008,-1.27384070790524,-1.00856549115013,-0.271598515642206,0.363587250966625,-0.118759825568539,-1.20830093397254,-1.40009848403728,-0.616841981512895,0.086374745800962,0.311623231259664,0.235175199753713,-0.00413486425622102,-0.157105564745779,0.00423523277366302,0.353414982418965,0.580553928964203,0.560632156929183,0.424087610548213,0.356451959249346,0.422253385374567,0.555241965139557,0.631409387520103,0.559192925719854,0.357279714564426,0.128601179751789,-0.0689262377181057,-0.279260627474204,-0.526863314133104,-0.672528978587758,-0.481578827168372,0.0973929378803883,0.741415361210259,0.943106821781223,0.474891452482248,-0.358221577464278,-0.980423536481193,-1.04336924999262,-0.653231235504264,-0.181911250654848,0.0654901058260244,0.0215729088322857,-0.201922387307595,-0.459496359534534,-0.652605928444722,-0.737626341571399,-0.724302861339327,-0.663996012378035,-0.611907606853392,-0.603853222679442,-0.651798151665552,-0.712257152479037,-0.675068545288545,-0.45526744146342,-0.0936651674582394,0.290520092951335,0.624743277896113,0.902859381462493,1.12115610707956,1.27369686989169,1.38527574760616,1.47176773681223,1.48178817636918,1.35119653637414,1.1179111173108,0.916312588557676,0.826700565302139,0.769186427071937,0.606812427357048,0.371765223074917,0.322532420510881,0.667402639053809,1.21818664793337,1.45394163936716,1.04120503717492,0.222067935671518,-0.423139850330785,-0.542742436072176,-0.251146527939739,0.105825621134791,0.268452365327716,0.177581729637964,-0.07639166735934,-0.35730329774303,-0.57616996921152,-0.719344737987728,-0.808438561286985,-0.864636950970169,-0.913779813211843,-0.980941748274509,-1.05525500177556,-1.08412890672777,-1.01529060495472,-0.832090416377448,-0.556986180668377,-0.243617415478551,0.0453280759270029,0.283601278599762,0.501225258554218,0.727239321256496,0.925575107879092,1.04111064913291,1.09228009472461,1.13395556146485,1.13579398350621,1.00604728705627,0.756066922902099,0.526932255421639,0.392368658952686,0.235576994910734,-0.0572396234106072,-0.319588260286572,-0.187435021215496,0.448681647644827,1.15994720212621,1.29267910756854,0.609706454328561,-0.440173714302527,-1.13435541176312,-1.11918373322221,-0.619449324430334,-0.112289524369016,0.0729848795391492,-0.119444104124108,-0.534837604494418,-0.904007275936839,-1.00574265675055,-0.862781792326619,-0.740821559930237,-0.871852871201224,-1.19346702353792,-1.41750817841014,-1.34573345299743,-1.05976042971886,-0.78765192376218,-0.641254610697881,-0.530927339651371,-0.306451393076489,0.0713996026951662,0.492290132905313,0.796181631981893,0.91507378593571,0.924815331488337,0.944023684124026,0.990448533160823,0.972940952718473,0.828536505798669,0.623150297588942,0.474954054862387,0.385648830063247,0.218089159656794,-0.0833558330237794,-0.290331978590586,-0.0644314987676389,0.589685552097764,1.16499704340125,1.09573136736404,0.346632103223683,-0.542665589579787,-0.998258331350746,-0.899304972599706,-0.530442340589692,-0.209818067820337,-0.0769149152024273,-0.150207466200229,-0.40883410764579,-0.760188708934963,-1.02304981640114,-1.05359822337747,-0.901579843431886,-0.779337484135922,-0.844859788822288,-1.04513348838021,-1.18221784482226,-1.0986663702886,-0.798043253860368,-0.422779906069088,-0.115968373796658,0.115520830341182,0.382738351760821,0.748940963772548,1.12786881915915,1.37094508148435,1.40817431330564,1.28025130509957,1.0871224374193,0.938361762152584,0.899071377564413,0.925799151800934,0.873439814035588,0.614889270774789,0.180579307251441,-0.200719651505713,-0.211895553902779,0.297062033860148,1.05865693281366,1.46218891816123,1.06099854544733,0.0546212248934258,-0.847953255735172,-1.09377242381618,-0.734999160635445,-0.222126026659171,0.0765320444636607,0.0644922365531045,-0.195637033425121,-0.577185760872093,-0.907378006504229,-1.05803662538375,-1.05943100771312,-1.05409497268842,-1.1306108261154,-1.25169549806209,-1.33219881403862,-1.33075986526485,-1.25643469898381,-1.11836402808445,-0.898826013289708,-0.59180823427207,-0.246517744944481,0.0707953032817364,0.346985911157337,0.608188241302852,0.853072243340804,1.04843013831689,1.17491622143144,1.23401613203859,1.22194691786851,1.13349243303547,0.992664670193488,0.858455817539887,0.783890678528375,0.751301641824485,0.647428772970515,0.361175180910286,-0.0219698734054693,-0.162610624466892,0.241188232809778,1.02536744307737,1.54322316346842,1.24663842698469,0.284768082339289,-0.601812441384443,-0.81392924863419,-0.419444614576867,0.0747081763524752,0.305067963606512,0.265758505594818,0.0809063204654933,-0.17849870206422,-0.437986958048321,-0.589539568969354,-0.616269565589461,-0.653681390340783,-0.83822270910606,-1.11355147582462,-1.25752227071014,-1.13478011504676,-0.868372919131205,-0.692168999165812,-0.670040420300805,-0.648248845413629,-0.469384155137967,-0.145228607295815,0.190193109371223,0.431784678771198,0.580020123999151,0.693213596224566,0.80052416845577,0.893513594207375,0.980694077499001,1.0700614070378,1.09472462251973,0.969019423106346,0.754378364070885,0.642454525816654,0.691704918441093,0.683767760006651,0.366678692667667,-0.180399137261115,-0.524935388923233,-0.27889592301976,0.472992798649591,1.15994151272202,1.19037269775908,0.479748641446569,-0.476305275291151,-1.05164572417952,-1.00165080854287,-0.570249416745566,-0.181813243319657,-0.076500386112277,-0.210449762156491,-0.427051744935672,-0.642341908442389,-0.841429346360358,-0.973046194901013,-0.958356255438484,-0.821560355108945,-0.72887499909989,-0.829384635497107,-1.07702308588001,-1.2618006620767,-1.20898490715084,-0.905146490231801,-0.456965484186935,-0.00745146870805895,0.313233424759343,0.453492733836718,0.4923152596642,0.558882428665998,0.677660466148646,0.759841917637801,0.755342854434308,0.716357421651458,0.682880890470988,0.604196604086082,0.417134832094814,0.131268576321981,-0.175823683194852,-0.364165495767086,-0.239279718291582,0.291958314463139,0.980468271070295,1.27816796381207,0.818470634964314,-0.144196376475137,-0.920734347973951,-1.03618579085955,-0.601040324948317,-0.0797565158887586,0.155031147243359,0.0352220596600402,-0.271010377391126,-0.539927021103883,-0.647524364995895,-0.620002744623356,-0.56581393397451,-0.567326600078692,-0.631201105154575,-0.711123880004198,-0.746861352648011,-0.693417291714004,-0.545308962439165,-0.329739284679881,-0.0605151310392386,0.276369753457146,0.664358773512391,1.01169373621492,1.20926867673407,1.23382797864514,1.1676140087521,1.10681281631807,1.0676891608076,1.00202538072423,0.884702702990196,0.728575939406428,0.513422298585217,0.208701783472723,-0.0646027952784199,-0.0162172061318118,0.495449363285368,1.15004923193171,1.35248468759723,0.815982289928679,-0.125114374557595,-0.837597009018719,-0.951654108757009,-0.575460189837447,-0.0870610938279601,0.164981350086525,0.0370287601954842,-0.366160253061458,-0.788108035266068,-1.02360142658637,-1.05287400315413,-0.989566828216458,-0.949267659735474,-0.987965942150266,-1.11083520193693,-1.28196791614554,-1.4185645292245,-1.40308885747343,-1.15125969050485,-0.706376226455896,-0.237157689201072,0.110004388507731,0.338687740307991,0.540567615137553,0.746741892434679,0.913114494235478,1.02532959931555,1.12299318575406,1.21413822757799,1.24844421304708,1.19003188736556,1.05250955955254,0.86058555905816,0.629187731367808,0.365151952880383,0.0720799078324073,-0.166920714673154,-0.108290479372102,0.448328746865385,1.25617868810081,1.62872752926847,1.09198133253612,-0.0417916857663785,-0.94153118679998,-1.06726712806809,-0.578047844442633,0.00139042254416277,0.306420020666806,0.279269802300286,-2.44604839132573e-07,-0.42242853376393,-0.823435407888344,-1.03034275529747,-1.02065078339296,-0.96409792443977,-1.03695346948374,-1.22090223785037,-1.34554291550849,-1.3140393191251,-1.19926501751789,-1.09027871992041,-0.939603287772736,-0.644145246305479,-0.224250550437904,0.170149281671928,0.424298301627265,0.560185417796418,0.669016344181083,0.810171856306929,0.999762191146691,1.22693088298192,1.42407244456863,1.46889349936373,1.29173401824994,0.980465683485355,0.726875912151699,0.64046918679123,0.627441433390951,0.48142988687992,0.116028673238423,-0.282861269021739,-0.356297703173986,0.103080821441412,0.857438800657878,1.30237113249534,0.968331424649588,-0.00853914993219415,-0.969375481255885,-1.30985002475041,-0.961370987335792,-0.349599553175165,0.0323904496615593,-0.00161220024360974,-0.297232488915435,-0.605231018445441,-0.812566375518035,-0.945379422726658,-1.02794517702524,-1.03026475250906,-0.958644447888186,-0.912971128875683,-0.984170611420092,-1.11483377346229,-1.12577981020221,-0.894704475383086,-0.471847704985791,-0.0160832095615661,0.342980612293978,0.577230738615419,0.740557623080345,0.894667157763337,1.03459904808907,1.08628748171746,0.991758968519265,0.790992450358699,0.604466607408697,0.523155250884161,0.5004738856695,0.367705702143451,0.027608719528772,-0.329561007643031,-0.300850048520513,0.295431019428687,1.06846063264776,1.30236119647737,0.662274948230677,-0.416037344583015,-1.13627360794494,-1.09432781799679,-0.548437803633254,-0.0360144378606809,0.113690428286187,-0.086578091259117,-0.434290753804241,-0.7094445165644,-0.771539273456929,-0.624194597377344,-0.432145641847161,-0.406490415968181,-0.603775759068326,-0.859360735782141,-0.954805351629539,-0.814352306089213,-0.508720150857089,-0.132601302978577,0.254777152052704,0.611137149277539,0.908923222944831,1.14142834079904,1.28885646258806,1.30665763669123,1.19450931346321,1.0438181057602,0.956336541568427,0.924308473554304,0.830695421657887,0.573121555017211,0.19429852854011,-0.0867228132500541,-0.00578929662359505,0.489604684600082,1.0808146621624,1.26780585175378,0.820836114475259,0.0203727585193943,-0.624046720748784,-0.849285219026024,-0.748724853834447,-0.499546119740581,-0.18772775426457,0.0699673412472823,0.0461767283690157,-0.38104708597257,-0.997773323119021,-1.395598159337,-1.37323731565985,-1.12680124311193,-1.02076899767311,-1.21740377332983,-1.55065651833786,-1.7230910019124,-1.58627123297208,-1.23878318065734,-0.888079404141581,-0.637601931705459,-0.413442502918431,-0.0982787856822728,0.295358248438465,0.639286018438135,0.866874477497974,1.04581856105908,1.2400355552731,1.39536667253244,1.43511583889883,1.3903227051618,1.34551574823857,1.30395660914972,1.18440283720003,0.925722520069594,0.546905060891665,0.1358900069116,-0.161504868129692,-0.149042612414878,0.320982182930951,1.12428233313365,1.74467281475788,1.58553057599739,0.578803180085619,-0.603647920777998,-1.12825956696042,-0.779506295114881,-0.0647925722415829,0.387011884291022,0.377430602884879,0.112557926190685,-0.181809088698901,-0.476826930421386,-0.810210973630583,-1.10348872838442,-1.22951195943931,-1.21459736164326,-1.24103553014263,-1.41687514152014,-1.63486435678038,-1.7152135196421,-1.61632406165013,-1.42243807758314,-1.17670609256716,-0.846849322466427,-0.451794806805648,-0.100457656973081,0.134599209697126,0.297213789541525,0.467153680016226,0.668429498624498,0.884534515081045,1.10519848536665,1.3255010412602,1.52378358583992,1.65626083733479,1.67856375505712,1.58547851235346,1.41853408581564,1.22037729770103,1.01256823124556,0.82775776089605,0.685124423964863,0.491732647997833,0.0961139312161173,-0.417111900760971,-0.592156779801128,-0.0296544685287417,0.997330813778814,1.59924273578755,1.12536063899916,-0.136310770938221,-1.25094907610232,-1.54954427850063,-1.12528564566315,-0.523805188372673,-0.174210389113443,-0.173996240909934,-0.433510178216961,-0.831056799325105,-1.22935142784935,-1.48258508252024,-1.52331098014186,-1.42764462536583,-1.35027061865597,-1.38335033607302,-1.48137682454642,-1.5173978856574,-1.40080980994429,-1.13494617659463,-0.776461592591394,-0.366702993789864,0.0910205030335597,0.593924320807663,1.07966617453259,1.42668316220894,1.55661680989896,1.52861820140377,1.48452723169856,1.49874645392164,1.51903700370105,1.45596061501476,1.2914273746441,1.07081072635798,0.803803151239663,0.437486167877077,-0.004107070298271,-0.268021247835901,0.00723023932152322,0.867534202746889,1.75234795042775,1.83968649040543,0.851924730012133,-0.55844028882904,-1.38556894699718,-1.21649417479991,-0.503926659213108,0.0332220768760341,0.0919044649460834,-0.153980976621857,-0.45728975691133,-0.757163556126144,-1.07205816399182,-1.33192807524777,-1.42434369993114,-1.35015510112212,-1.25481558593926,-1.2940422451624,-1.47394115555812,-1.62046972675381,-1.52146865062568,-1.11977298936637,-0.56752799587593,-0.0822333443759377,0.249501279218938,0.513863084526888,0.815576595513574,1.1182594717799,1.284758457522,1.26107869239738,1.14832039932592,1.06676757363,1.01258483340653,0.898052917496681,0.677004173464363,0.358822160095617,-0.0453767252555386,-0.460895094625234,-0.634480197669323,-0.26049695867575,0.623636654126274,1.43846026614217,1.4728488558573,0.585161661189136,-0.602896902467636,-1.27902836914356,-1.13335991483412,-0.468008285999287,0.209268371739871,0.561309834050066,0.512312714120624,0.191069184966082,-0.162669923882788,-0.344259801440016,-0.311450248892153,-0.178927062378282,-0.111936858120824,-0.215378930689637,-0.460936349552149,-0.701728528025836,-0.799598191894437,-0.751677318186674,-0.647493843412891,-0.52423533580093,-0.375539029760658,-0.242154729107929,-0.218053720432069,-0.354029365402957,-0.192525781493158,0.980140803299196,2.19588136796158,1.23003607013617,-1.31175771255236,-2.19936764057595,-0.757923593051786,0.763014266269835,1.16141712445659,0.873589503801898,0.357294766585626,-0.0982104170429264,-0.221849894723967,0.0102473280863581,0.387179674327618,0.645984559395191,0.647312415661299,0.477175864990438,0.359234086262667,0.445467446475198,0.683196036290334,0.884499905529534,0.908615834201492,0.751581195661442,0.50371124482107,0.281561706545876,0.162124907021705,0.103349978670106,-0.0489098078322514,-0.372160140100764,-0.66039247663825,-0.519711940273388,0.201204922051107,1.09036019737833,1.42522286189741,0.843347174919918,-0.281498882633151,-1.18797745304166,-1.3975053422585,-0.996225989689544,-0.384239529991229,0.0746880992280789,0.186217809310165,-0.073852710770467,-0.558714639472828,-1.00028253449415,-1.16095764604753,-0.995258003134619,-0.687660313286235,-0.513686533505759,-0.604417441686437,-0.823946086384791,-0.910874436112073,-0.732977775308582,-0.34980410086665,0.136054976908028,0.662192793154949,1.1312564460826,1.39797774175819,1.41354963250927,1.30719652318532,1.24932056048143,1.26392840169856,1.22529339671226,1.02308275232099,0.677973928438769,0.289066093892886,-0.0462633358579868,-0.182163631071661,0.0998886458222629,0.839478300869411,1.59586246484202,1.65227600276161,0.7136030923523,-0.686987930190005,-1.61865499504304,-1.57471616856913,-0.833027478079362,-0.0933924647855445,0.136363413688058,-0.170415093517705,-0.723065302655861,-1.2214108026168,-1.49704457538866,-1.499320375738,-1.29524278986191,-1.07965958739366,-1.06586424241122,-1.29514293684766,-1.57373892943213,-1.62653932914983,-1.32440636126922,-0.783762112337523,-0.261249965117146,0.0608827049828676,0.199365406465792,0.28553563085328,0.383054086192797,0.431033352875539,0.366397056422384,0.240172196944997,0.15008392729627,0.0704577621512842,-0.15880643441411,-0.590961821869093,-0.94720129048258,-0.766091610574087,0.109250288436159,1.21575243294088,1.76142021903948,1.31711176400132,0.225365054625834,-0.68806718404738,-0.806318140327239,-0.157407860568753,0.736192763759911,1.34604872029668,1.47419078065372,1.15846967799651,0.463984420986605,-0.338200836745412,-0.524479378306583,0.558939551308818,1.87353185657459,0.277318237781903,-4.55818488215509,-6.11515885018226,-0.136024880669809,5.94495602117645,4.17719356607761,-1.2777878293622,-3.2098851098622,-1.86726790087497,-0.32342975929762,0.601260105164305,0.992102686383655,0.904064818625598,0.597377075496488,0.296915058189998,0.11358324281464,0.0870723855680384,0.159262832117122,0.203388963707472,0.0800459479616226,-0.247378064826983,-0.622498451914396,-0.799604275441768,-0.664535085125555,-0.33858593465166,-0.0488282720184739,0.099640083428035,0.195516119451636,0.367833878752556,0.618749828049084,0.859470690721105,1.06561377599601,1.30190702846244,1.59100058520084,1.84412800438321,1.95654200543597,1.92676017728826,1.85290071057913,1.82535492561262,1.83756991900696,1.81113045073851,1.7060388482406,1.56690383230043,1.42101578988372,1.1737195012418,0.716254199439807,0.186064695047149,0.0181062442629382,0.565760598677324,1.60387175908881,2.3245404743038,2.00430900921475,0.721335553765387,-0.678486463379165,-1.35765016508067,-1.16118030145141,-0.557882885259335,-0.107358442486851,-0.0825658704827846,-0.464450753412783,-1.08588286316569,-1.72550966055379,-2.17384321969847,-2.33779889797067,-2.32528032666194,-2.38943421670445,-2.72444715716902,-3.27666415388687,-3.76095785017607,-3.89262499054752,-3.62785641944137,-3.17839755074899,-2.79349459103614,-2.55837668540207,-2.40829568860537,-2.25746206193087,-2.04832180805601,-1.73971923394426,-1.34199436945069,-0.948229296076839,-0.672161803622804,-0.553481511270526,-0.520214360529664,-0.403283132454428,-0.0217878788006062,0.632169848170631,1.28200232460347,1.5712098375841,1.45743531618001,1.34416691954727,1.75430641548955,2.8072996606737,3.95894155224741,4.3350192641089,3.43845431954177,1.62113742724992,-0.150411911019594,-1.14506606367686,-1.27032506720403,-0.933114337106431,-0.85544477662678,0.108706188203848,4.89178533663899,9.99080201380941,5.97124583713133,-5.25566268523352,-10.0578744608958,-4.99782129860096,0.7962800473585,2.40322493227373,1.71844878087221,0.40749851763316,-0.83729915990059,-1.3682134472456,-1.27631646689255,-1.10288358041594,-1.16700850004925,-1.42319750396249,-1.62552762334934,-1.61507747368908,-1.42152095595006,-1.14018064928546,-0.78486592045936,-0.237925762539444,0.540571431307035,1.27958260767691,1.52697714798173,0.719577605330024,-1.24847705696905,-2.46793366757365,-0.428444378071117
