-0.651275286404847,-0.605273900334292,-0.547542916186778,-0.456949006035462,-0.307235219687723,-0.103073069023466,0.118753449910812,0.319465258227581,0.478664507602136,0.59418682803405,0.675669832539728,0.736933520872925,0.785960341928133,0.819378648714418,0.827431890129054,0.801971574107716,0.736781417588179,0.62402781651752,0.460605777052362,0.26392665002018,0.0760436886609592,-0.0573711732150667,-0.115665674584459,-0.110232235562581,-0.0654198475531059,0.0018864334269388,0.0812129667729233,0.15276438632885,0.183565303939685,0.146105900816462,0.0396614303195852,-0.109479109720207,-0.267079237665657,-0.408649338587131,-0.523322319342944,-0.608474758205312,-0.663799250717854,-0.687794455902099,-0.676270112052278,-0.623544737646325,-0.527636486923632,-0.396970128409769,-0.25080422608752,-0.109218547673522,0.0184450511568535,0.134146439190028,0.242455154629921,0.345106073616606,0.441940373378117,0.530434764911937,0.603733039319746,0.655686175856391,0.688609684272394,0.708125273000555,0.707950868281845,0.667474392743818,0.568357553207199,0.409847271146943,0.20970169409312,1.47060387238504e-05,-0.176959905322711,-0.283915888203651,-0.311866240819006,-0.283566540739055,-0.22679103214833,-0.153140708268818,-0.0728347359922931,-0.0182030994067913,-0.032121045942119,-0.131813490258017,-0.295875984331406,-0.48713608225369,-0.676899554901646,-0.845746988161436,-0.975877909422252,-1.05566444204554,-1.08784612912436,-1.0818283771778,-1.03696131071517,-0.943515777413127,-0.804253977825094,-0.64556764097709,-0.499121602239964,-0.377690522089243,-0.276171746432201,-0.191027978863947,-0.127906919383139,-0.0891085581687597,-0.0628890916674561,-0.0328780608553988,0.00274896747225192,0.0254070581249913,0.00983057893408065,-0.0551631298247872,-0.152934170345138,-0.242143186753335,-0.28044248778588,-0.252816124770155,-0.174122068928358,-0.061333430176574,0.085919219425204,0.266064045015082,0.446037724864432,0.571253921868088,0.609384562552704,0.572759615049377,0.49668542874621,0.41096847860579,0.337159624257928,0.295236300727685,0.296752978363465,0.33732567303501,0.407108831859426,0.505219569525426,0.63541181562366,0.790260319748729,0.947986566094542,1.08669341908024,1.19748985065511,1.28057846991539,1.33173522271127,1.3405507229646,1.30412281413429,1.23453891041304,1.1463974591998,1.03933353931066,0.896273056330527,0.700317020478925,0.458261893672441,0.211173496168682,0.0150179093013851,-0.0994234964985452,-0.148022719288909,-0.169698822465872,-0.184512005757838,-0.185777565327957,-0.175069118542653,-0.190170121440168,-0.282808799305288,-0.469052333752999,-0.712126587537509,-0.956055935644601,-1.16649978113825,-1.33528518198703,-1.45928151203521,-1.53112548757931,-1.54850028191969,-1.51816064137355,-1.44608206562223,-1.33213050920574,-1.17997407833669,-1.00613748009419,-0.831091221665575,-0.66204402550855,-0.49059172436089,-0.30826956196973,-0.119831507127943,0.0596297054121004,0.216209605343787,0.344582706491177,0.44766082323989,0.530997407518101,0.596732791867708,0.642009008929818,0.660100691024857,0.638967484226395,0.56232350911098,0.424084552591446,0.248614113452039,0.0895885330541414,-0.00298628736079596,-0.0168542117721829,0.0260224166476332,0.102786122399848,0.205703640325398,0.322424236596807,0.416800035101501,0.444025696062853,0.382897514834796,0.247822299275944,0.0738161502206708,-0.103765387614826,-0.258946864182883,-0.376903549651689,-0.453706610718031,-0.492477628128571,-0.495609653052256,-0.461059887245993,-0.387350659435853,-0.279558058197973,-0.148964754196229,-0.00983704288446745,0.123136892662707,0.239819054617596,0.340159878432518,0.431209049231466,0.515926028742299,0.587675039346556,0.637697505767121,0.664621632694629,0.673217942557235,0.664893736565966,0.630531655256599,0.551610103299714,0.41276384917388,0.224059924073516,0.0329672288128844,-0.0992351785093489,-0.144395137325151,-0.126217672786304,-0.0855216577166154,-0.0355606362442041,0.0352856382702211,0.121767259966309,0.181639148739026,0.165441070697618,0.0594526592424991,-0.105124366510465,-0.279358377924267,-0.427655485548706,-0.537199297101681,-0.608863069133324,-0.64723180015744,-0.65590515714218,-0.6318453543449,-0.562524812608789,-0.439041762079567,-0.277397280317535,-0.11749517784757,0.00816298551379934,0.100419572501781,0.180983303410239,0.259413712269134,0.323474108902392,0.360993686849878,0.378443041902618,0.391299203470185,0.402200062928947,0.394340205562957,0.343065673001298,0.23211277770641,0.0679122485913899,-0.112317350519218,-0.251943346878937,-0.308342695657279,-0.280268809662754,-0.199072655905291,-0.0959438272904849,0.0131440214693119,0.111024810813264,0.163484822863319,0.134449150555534,0.0175989576529195,-0.154919866300824,-0.336763460617667,-0.494156566337071,-0.609637984954275,-0.673746605162488,-0.684873266895096,-0.65310171362577,-0.593316664210088,-0.511311719296737,-0.400718984262412,-0.257160169386237,-0.0941163419081473,0.0604385273739586,0.186172332628566,0.286324947463738,0.378767314460811,0.47377054110391,0.564108206117575,0.636010407726575,0.685453258726216,0.719971415354808,0.7443069622835,0.747361927206404,0.705253279543976,0.596673593314134,0.418474982406759,0.195659105403181,-0.0195777052522476,-0.169554477505195,-0.226770422375156,-0.208930336746868,-0.152007418856792,-0.0745158556723996,0.0186240038460197,0.102799097590737,0.128032096270103,0.0579214134395123,-0.0965241042147096,-0.290539640232713,-0.484357136442597,-0.660247781084971,-0.810576394665555,-0.924894024142944,-0.993768544509875,-1.01939999127706,-1.01392326729171,-0.982928725827495,-0.916026747106219,-0.802658596107064,-0.654419656123319,-0.499630468420464,-0.354418255126737,-0.209718604286259,-0.0494113185275115,0.128211743010573,0.311418006733936,0.489627915669414,0.658753285124248,0.813662359279268,0.944035196322547,1.04220153511341,1.11044254581161,1.15557778345608,1.17935157723051,1.17881073414903,1.15294407423228,1.10101358610103,1.01300166549624,0.872104948088358,0.679409619625034,0.475001151750406,0.319778580899243,0.248308783842524,0.247035224924339,0.282298844479766,0.336183046503014,0.403132732877449,0.461176449227549,0.4665967956935,0.384485180177887,0.217497059505622,-0.000375416229126618,-0.23205826405943,-0.453523504403125,-0.649802480775112,-0.809423959045168,-0.926526038004113,-1.00108661565081,-1.03306616924599,-1.02055284509098,-0.966110022575625,-0.880515124969106,-0.777335957981196,-0.666856888225079,-0.555841153215984,-0.447898878500784,-0.342246580284536,-0.235978616467063,-0.127544336858753,-0.0147845643203776,0.10618038719776,0.232822053411329,0.350182643631787,0.440627527737663,0.497535278046249,0.525017775370749,0.529901145634755,0.518456411671775,0.491976111328268,0.437257724412022,0.328891905344827,0.154268452396348,-0.0596175571951877,-0.250327539366687,-0.360598764301948,-0.380357492585527,-0.345459497910815,-0.292496904878716,-0.224266959203724,-0.130594707466646,-0.0347771243589997,0.00305634169151655,-0.0625181764424496,-0.219040394649913,-0.411994694486601,-0.592959131441826,-0.742384343857739,-0.856026814798602,-0.929012358279284,-0.957269288731849,-0.942317743535215,-0.887192838075712,-0.792879256311503,-0.663049660081743,-0.508918734417627,-0.347774264587359,-0.198295795870416,-0.0728991565924785,0.0315750278725276,0.13224399068457,0.242614887089348,0.358216577221661,0.463405132107222,0.548975566025377,0.618040604542823,0.675402279777738,0.715143112253247,0.720669229045243,0.675992265026875,0.576079799685075,0.430095108724847,0.262070634707228,0.109579798972486,0.0116331150442355,-0.0130517732052545,0.0234324643498254,0.0930702351973572,0.174708796444385,0.257029125714562,0.323521004454495,0.347253048149054,0.307352956485897,0.206617063315865,0.0685429499258998,-0.0792210378298915,-0.214262139241558,-0.318806664400906,-0.381797636331326,-0.404726102405743,-0.398196907531215,-0.367178121326683,-0.302659137387474,-0.19369477467059,-0.0476314005453602,0.107890870796315,0.246895583981152,0.3652197285316,0.474895453189099,0.58303953327083,0.683376930359835,0.766938336851415,0.832523727919476,0.882670410052833,0.913735700120938,0.914585532726719,0.872676180837013,0.777839785453397,0.626841179245534,0.436930041541257,0.253846714364636,0.129284790807208,0.0815454109091244,0.088221972088983,0.122096393169784,0.178249251296132,0.254479637463711,0.320921577570876,0.330686029332837,0.258931496662774,0.118489117110631,-0.0599997257898426,-0.249564318195623,-0.428757269785227,-0.578186002048097,-0.687149416445945,-0.759547273504605,-0.802538247214218,-0.809512336331612,-0.765004277726612,-0.669311541736222,-0.548146718889936,-0.43197284107838,-0.331709871773066,-0.239317750318764,-0.147019602597773,-0.0591164256921738,0.0147390005403017,0.0716469403137667,0.116000622722003,0.149799219300706,0.16782420653575,0.162309202629516,0.125192926941628,0.0435289586633931,-0.095850717373906,-0.283579436296501,-0.472001424478801,-0.597610915000213,-0.628145167960783,-0.582671273014749,-0.501531777496287,-0.405826646758782,-0.296458924487322,-0.185759728810716,-0.111638265412839,-0.112238917048452,-0.19263669477018,-0.322126700099198,-0.460630169186724,-0.581945886583703,-0.674641560556491,-0.733185053165567,-0.756568601204022,-0.749286919100878,-0.713073673634171,-0.638732012685121,-0.515581291489505,-0.351133247485744,-0.173554091472071,-0.00984860350391208,0.133384608385093,0.263408066915325,0.382329809451621,0.483285348023869,0.562578554005858,0.625612682267132,0.678718277218063,0.720897088907856,0.743888547962329,0.733729712983049,0.67254783284702,0.550923611158438,0.388792949075209,0.239502373027361,0.158384654409715,0.159890869817677,0.213406677981888,0.286930843314374,0.380594229203743,0.501336138363592,0.617972893339643,0.669678168825554,0.62197491836592,0.49618424617409,0.341752805678959,0.195684036259672,0.0720136990746361,-0.0250665085886932,-0.0899890870009334,-0.115651505051265,-0.0985263075547401,-0.0421029083659057,0.0439780344465424,0.147565423970479,0.256506808128217,0.357909677664357,0.43784552914906,0.486570568280762,0.505228198912437,0.503919685007934,0.492094674816707,0.473889552331088,0.451394480962704,0.423860367171732,0.37871735432854,0.289344395562917,0.131943071631392,-0.0890601774942808,-0.330603279720051,-0.529588841592773,-0.641846000440932,-0.669493927323374,-0.646898927685167,-0.600008350495527,-0.531349104925484,-0.448833767367347,-0.391231018831138,-0.406754970409285,-0.509366752384251,-0.667228759002321,-0.832161340071429,-0.971335891644752,-1.0731214840216,-1.13626638075971,-1.16061355113481,-1.14308740138567,-1.07788972578463,-0.961926555194062,-0.800147400179178,-0.6042066068249,-0.388908338680409,-0.172222527684389,0.0266278781433881,0.195354154445792,0.334703451815922,0.454405711501344,0.563080078083501,0.661314157460707,0.743176752660988,0.804606371964813,0.848781593205145,0.878263509423177,0.88044118290089,0.827995746545072,0.702712724488143,0.521288447771183,0.335203925334047,0.201379300095874,0.147344126871142,0.160444725180338,0.20992042497073,0.276291288267327,0.352711700598225,0.420170519828043,0.437387212795933,0.368078424651183,0.215200786840771,0.0192690530844944,-0.176755667939819,-0.35368427061338,-0.50885239002989,-0.636269466942016,-0.724216659667805,-0.767931293259191,-0.774001991224147,-0.750069752099468,-0.696008531514948,-0.608436601989905,-0.491440206102433,-0.360188353593296,-0.233348851436302,-0.120726623248377,-0.0166657199010134,0.0941405844244305,0.222897784734937,0.367378335452341,0.51379579917763,0.646196651645912,0.756662232618272,0.849070625167389,0.930272373164853,0.996700575178679,1.03579117509725,1.04196430124457,1.02297006053618,0.987802667081579,0.934360225204857,0.848604762852044,0.711903990016072,0.517607552909164,0.292306254173166,0.0957133619074273,-0.016139205195061,-0.0331196736463503,0.0083336134369362,0.0659257340268784,0.123070703090641,0.176826779792842,0.208183943752777,0.180431598453627,0.0678335245173267,-0.121175892591459,-0.348003826418686,-0.566381670987622,-0.746520701603135,-0.886944946011632,-1.00360426379629,-1.10415432503105,-1.17511590068917,-1.19587928752741,-1.15946528944833,-1.07624289379599,-0.964106811976277,-0.839785445671888,-0.713451819409593,-0.586268918615111,-0.456889641027888,-0.332081841118767,-0.224153128082195,-0.134709960706642,-0.0484471452885126,0.0502286709866201,0.157551735185162,0.252904301186712,0.319797243811288,0.359932013232512,0.386673547278093,0.409383960167012,0.426230322988111,0.427227105527197,0.397291570822064,0.318275598802366,0.180883642370599,0.00506891444184412,-0.156352494277405,-0.249123897969035,-0.259005537955085,-0.215278662973887,-0.150224532349385,-0.0674383412709387,0.0392376740333186,0.146151467017984,0.198798858142361,0.154581874440328,0.0186615634869324,-0.163349742672993,-0.340085769581866,-0.480235273582808,-0.574852919338318,-0.627229197618196,-0.644013760530218,-0.629221597878238,-0.579629510669928,-0.488548630099983,-0.360524152601344,-0.218735414032683,-0.0886168823708341,0.0245149574912253,0.133916396573923,0.250403781955432,0.370947403736119,0.485805582043981,0.588857132697457,0.679367941799697,0.756927126996928,0.817098788805897,0.853224607478934,0.86195289330052,0.844656908408697,0.800919870261151,0.720151759692397,0.586108387625046,0.401418191538785,0.208366615006695,0.069691752957012,0.0188909424646542,0.0379841759719835,0.0891101036284155,0.153935976626137,0.230616423051976,0.303128560799478,0.332782583835614,0.285508045851372,0.160428896587702,-0.0132194112367916,-0.201462422762427,-0.380065925944742,-0.530116334739797,-0.636399102795132,-0.696262191667497,-0.72033465839144,-0.717899441362302,-0.685440744390351,-0.612253441560418,-0.495869099132282,-0.352599309884545,-0.211719519554145,-0.0929691887154076,0.0111513252371301,0.123439819234578,0.251598097384235,0.378631879195515,0.484077539229727,0.56209233299329,0.613847304800317,0.635671995187208,0.625487632827559,0.591475665335196,0.540506488600294,0.461611537532832,0.335613059522388,0.166380225689967,-0.00515503961374311,-0.126349965791558,-0.173206971719072,-0.162407081877528,-0.123768847700408,-0.0688113557576575,0.00517630869377502,0.0842116294187209,0.126716924270732,0.0936135126798091,-0.0162832813698576,-0.169270964661029,-0.330571457593653,-0.485383319691184,-0.629809526395749,-0.755347763057601,-0.848840958711065,-0.90194023064484,-0.91453001121238,-0.888404675389574,-0.820701554881027,-0.708180860942406,-0.558633516957283,-0.39183256426909,-0.225734985976555,-0.067206893256614,0.080917727363132,0.211936047707556,0.32142207791229,0.416013819382631,0.507796391051485,0.600186020545629,0.684117092687542,0.748462239264223,0.790433876650042,0.813558542135529,0.816687243185563,0.78700992303401,0.704696532493599,0.557063121807035,0.355410181217613,0.143056852617729,-0.0194170389464115,-0.0899821212877514,-0.0726099993542889,-0.00602047558117375,0.0756215741606554,0.163175579731212,0.250174299724378,0.303174498637872,0.273653168969501,0.143384065099629,-0.0527802836246895,-0.255063641497261,-0.424816295242954,-0.560354883651634,-0.674222773849542,-0.764302869046243,-0.811395862282524,-0.801410476743288,-0.742021119577498,-0.653845693451563,-0.549590853009626,-0.42789247929859,-0.287364980859427,-0.140184497886187,-0.00675270587025446,0.100720696548596,0.184379305655907,0.252021837929018,0.307589466984149,0.349568230612963,0.373665821270228,0.376689542565825,0.359735119536873,0.323522163029761,0.257075420299477,0.140868541194676,-0.0238296827591922,-0.191263227426818,-0.296115006179764,-0.310806450102718,-0.265753288828227,-0.204802033439957,-0.135867289724071,-0.0426528061514317,0.0648268579417024,0.13698325557182,0.128130761813233,0.0377384687368486,-0.0979613252278943,-0.240797099855267,-0.366718909995538,-0.459521882091849,-0.507391903858621,-0.508965640412747,-0.473061865398965,-0.406306685476347,-0.305640262625323,-0.169482540046507,-0.0131081296306019,0.136207012475463,0.260487608977994,0.360911892182297,0.44652816140702,0.521195813754117,0.58340017677471,0.631524927734498,0.664554311206188,0.679297389705264,0.668049296686471,0.618092166818758,0.516536053478505,0.363954302819456,0.188783501275269,0.0423613022677364,-0.0331015710521424,-0.0358981471070122,0.00237104366183873,0.0553067827852536,0.119994164041858,0.192388952344139,0.24185728320167,0.226960746238087,0.131869037749002,-0.0222979945812679,-0.196322932555728,-0.355334869105177,-0.480380527731254,-0.569753045590002,-0.630408086111779,-0.664910173477985,-0.666693095952017,-0.627375471214813,-0.545637386779017,-0.428835230960178,-0.289416785030643,-0.140685781672794,0.00694230744454564,0.147323272919026,0.276347294320654,0.39072611510314,0.490604753176366,0.579144155338747,0.655866033678635,0.714050396417156,0.74772085968568,0.756626508566333,0.740522103759328,0.691757926637644,0.596947036745009,0.446886826049625,0.24981343489408,0.0407096217004749,-0.128222873409555,-0.219863220336839,-0.23787570096148,-0.213361779576969,-0.169761449686135,-0.114117530323236,-0.0604512355218828,-0.0419853079211028,-0.0903015210754732,-0.210165384938056,-0.380085610362693,-0.570499751633394,-0.755266055842377,-0.911971384584954,-1.02425347439488,-1.08865524286242,-1.11210341314463,-1.09782696399937,-1.0399312431832,-0.935705231760515,-0.795311565171993,-0.634661605779161,-0.466920120025761,-0.304550981831808,-0.158281191805723,-0.0261530509286888,0.10816818716496,0.257137660559917,0.41279332640148,0.554465621408072,0.669554388247227,0.759908154044007,0.830264016164753,0.879962300190919,0.907840901881295,0.915675811472725,0.898909308909415,0.838135902290677,0.712288276939402,0.529732205068489,0.342236722987072,0.213531933586648,0.167793835012077,0.178362353174136,0.210758634700482,0.2607165212523,0.336136474486591,0.413781796493759,0.437573619060206,0.36537637650765,0.205087832644463,-0.000331195318668545,-0.211433575435338,-0.407210036911703,-0.572560417740249,-0.689936839523326,-0.750295658390112,-0.763560513909363,-0.74700449251193,-0.703281789676261,-0.619437656603186,-0.491219996453592,-0.339984846316294,-0.19782783260399,-0.0788541506840943,0.0283845364543295,0.14034736599067,0.257070098746198,0.364855690902037,0.454690622398748,0.528712467711792,0.58788700058925,0.623247428359423,0.626159538004207,0.600480855049608,0.552885234208792,0.472375198825779,0.335673591827741,0.144514341415623,-0.0512737141328406,-0.184532730457869,-0.226816706490756,-0.204498180280247,-0.159495754725927,-0.10725608125727,-0.0411585382298445,0.0304477790351087,0.0675719067219438,0.0270747366874577,-0.0968227640731655,-0.269596197913797,-0.452721040034017,-0.631018871166616,-0.800732081371422,-0.945658428212598,-1.0400602120047,-1.07176318830048,-1.05031266703041,-0.990587126605575,-0.896781220596331,-0.767185195944862,-0.610206974268571,-0.448889193949916,-0.30638962287128,-0.186587621163483,-0.0705092563164216,0.0653695419173886,0.226626900236557,0.397637719833142,0.55837888824435,0.699821691634367,0.822609865370634,0.925606289901972,1.00023785727143,1.03743858082518,1.03905875185589,1.01934405165917,0.991249609998271,0.948928414429459,0.86573638653714,0.717223892347815,0.513711784697754,0.30797961124482,0.160734302575216,0.0942049789665402,0.0842536164773875,0.0979678524628113,0.127897846567156,0.180783213835293,0.240010024148638,0.256041035307695,0.182974988812305,0.0201845641584299,-0.189063896021957,-0.397870505742997,-0.58707762491801,-0.75871488987487,-0.911847325296991,-1.0336305420597,-1.10927189047494,-1.13327459796741,-1.10979913793153,-1.04389131878474,-0.935981339047527,-0.789767493468336,-0.622980824916382,-0.460662770057913,-0.315425287814447,-0.181327392727043,-0.0480271670531698,0.0872954614781091,0.223821648393222,0.362990598159985,0.502997609316485,0.631809117090723,0.733769164854383,0.803191389307402,0.845874564710356,0.867520705679171,0.867066300024276,0.842048999137575,0.792182600813311,0.711765446985516,0.584421456485207,0.398243329633987,0.172535539495644,-0.0380766341637542,-0.177482374585694,-0.22640673905639,-0.202834434907382,-0.132568965870486,-0.0339269982443629,0.0697135213535968,0.139611835220173,0.136058292896979,0.0423360851374542,-0.127057114950385,-0.337617539063789,-0.551842856714289,-0.740461973184767,-0.885003762237247,-0.975477178250028,-1.00980965595724,-0.995184538350699,-0.942728851761119,-0.855905885585431,-0.729529378360196,-0.565664556630067,-0.383989720956679,-0.20805309291654,-0.0454307709675409,0.110616411641599,0.264130076247305,0.410654508207832,0.545476047191014,0.66617341808421,0.766053512875499,0.835163932857014,0.87054470201029,0.877197528801086,0.855868515746387,0.79676390443531,0.688860774366307,0.532532232007284,0.345533016262345,0.163920172289433,0.0335447822554452,-0.014065154139425,0.0161460086075782,0.0904872990195868,0.176433207905553,0.256182870099273,0.312643386078952,0.318713806617507,0.251451144256172,0.112942636057594,-0.0690369927015324,-0.259863147957095,-0.433896982849559,-0.574672371871302,-0.670340990518498,-0.717121506145546,-0.722630809606816,-0.695689287910792,-0.63252570877625,-0.521787922497704,-0.366313190749195,-0.192794372210887,-0.0336837314124359,0.0974901220141457,0.20795344801593,0.306742779635659,0.392557494223833,0.461074411972336,0.51505219302559,0.560361500830304,0.595506430455758,0.610159309196811,0.590343673714841,0.519889331720318,0.384281391129795,0.188394741311894,-0.0261932562795979,-0.19510562005875,-0.27535302487663,-0.273866837372388,-0.225947260986764,-0.153376057907616,-0.0586845874199886,0.042327701180269,0.103217942638561,0.0742750378481448,-0.0570605748399617,-0.257893632284813,-0.478389922716518,-0.683887169328026,-0.861325670053002,-1.00497891684221,-1.10655554764504,-1.1587764629047,-1.15998694646183,-1.11199536461217,-1.01805864499887,-0.885325309660521,-0.725356628116726,-0.549561280055226,-0.366023906310699,-0.180660933567363,0.00308454974837521,0.186344478988924,0.370373979499981,0.547126067390796,0.700077740783587,0.818438869970146,0.905201633391208,0.967126984208247,1.00383803289135,1.01263032918135,0.994895128351381,0.946558299402558,0.848242053307076,0.681110741959839,0.459299567869416,0.240692107295139,0.0952607912546375,0.0559746723095641,0.10190161028334,0.191121375368403,0.300846730598527,0.423752962324064,0.532530966289123,0.571491825980684,0.495587521956545,0.310207540607492,0.0651543937261761,-0.184101508573169,-0.403703575113995,-0.581719684836914,-0.717584509834679,-0.812916644482016,-0.864693759563974,-0.864972652098079,-0.809739764836699,-0.70723288826802,-0.575541027182457,-0.432722543497914,-0.2890606322186,-0.146233858875094,-0.0029795379921088,0.137766146989948,0.268898178674509,0.38778620550901,0.500568422798861,0.611283110200865,0.708203292620853,0.769650829873649,0.786079302637183,0.768927504130368,0.731902657011708,0.667454004395709,0.548531003100117,0.356885347037578,0.112349765903433,-0.123928681293334,-0.281074570745075,-0.324730373617511,-0.276376302352741,-0.184029880144376,-0.0782408282913661,0.0328616310797294,0.130206631804409,0.168058975103787,0.105076392578447,-0.057181739392677,-0.2765275847667,-0.50396526966849,-0.704931651176244,-0.855433274445367,-0.939059964553464,-0.956697571014121,-0.927309249718756,-0.867614523181502,-0.774793981784901,-0.63650610287943,-0.455134065515398,-0.255599870987042,-0.0689409866630875,0.0890747275250475,0.223235520777047,0.345389818625131,0.458634562138268,0.556268156409396,0.632312946226898,0.686173924460559,0.716243505964504,0.714217012616154,0.667037791498863,0.561741790677837,0.393065226512236,0.17792977460323,-0.0360414482130223,-0.190218721794436,-0.253394271975186,-0.236282482372934,-0.16650559260699,-0.0628782998436558,0.057095574167429,0.158145306988006,0.194244135576357,0.137264009969608,-0.0066539380744016,-0.207156640841483,-0.42929816390063,-0.643652919101147,-0.82761631155423,-0.967995960238767,-1.06356535393343,-1.11912075627713,-1.13597022423735,-1.11211417025781,-1.04989190786255,-0.958431897787329,-0.849393715914886,-0.733417387704486,-0.620305871502281,-0.515780028557144,-0.415882944928561,-0.315487075239833,-0.21500726222197,-0.105517144192477,0.0251198173916912,0.162796111896788,0.285171054953304,0.401221016216163,0.528623082362089,0.657072475347814,0.770209689272457,0.869396916795661,0.956127950231713,1.02237918006101,1.06458110867761,1.09012106366704,1.108015862251,1.11746495624105,1.10971085831438,1.07967306085274,1.02592388303402,0.938241699325271,0.800137565798221,0.616318981707334,0.430863179071776,0.301239533983536,0.250049583887515,0.252884842859156,0.277218408889128,0.318083735343531,0.382080017879683,0.448153970488967,0.467498234570492,0.405844277484794,0.272894959913494,0.107672661470319,-0.0550098793099586,-0.201705973710005,-0.333976462136677,-0.451912998438768,-0.544267555618425,-0.594897779591437,-0.598162434868236,-0.563435636862861,-0.501932390601692,-0.414260042586904,-0.297113940667404,-0.158959620261684,-0.0194775382236244,0.108858617049344,0.230990419449584,0.356822549280125,0.484806458200912,0.603448660044182,0.70432023423004,0.786803436540767,0.851867637729483,0.897418367015487,0.921447582369383,0.926384134074933,0.915192299294556,0.87974398565555,0.797940123115713,0.655004043168762,0.472376917741104,0.30454413986282,0.197964826299381,0.158511444817449,0.163444749811641,0.194096606179764,0.245221441786062,0.306721150241807,0.348488552389953,0.330236651403441,0.228105130866163,0.052143401266708,-0.162755471677199,-0.383562053701036,-0.59747934792363,-0.807163428367426,-1.01299912226486,-1.20356260748588,-1.36338092931599,-1.48626154169685,-1.57623916759797,-1.63635112783724,-1.66377618788743,-1.65853535125595,-1.63001790944313,-1.59045966012451,-1.54610363614771,-1.49634253611095,-1.43606585238603,-1.35900089707187,-1.26705728445009,-1.17627324251183,-1.10317351974027,-1.0452184223887,-0.987523827657267,-0.929542198453584,-0.888783994397355,-0.874044060505514,-0.874125930862231,-0.886355024790206,-0.94221945445106,-1.08409741131539,-1.31500966770589,-1.58144963985749,-1.810425374835,-1.96158665926614,-2.04077461047955,-2.06721189377649,-2.04385756106988,-1.97308901340075,-1.89142260186016,-1.86483604400383,-1.93052329106775,-2.04593610582717,-2.11327548305285,-2.04244745210717,-1.79198864146627,-1.36530524034202,-0.740047023598537,0.126336591609194,1.20142750073514,2.3482402473702,3.15955390088103,3.10305225091161,2.44944996397893,2.20582414539745,2.48977447004034,2.4236161656355,1.94979406689939,1.98136868181084,2.8230345122026,3.97118978984392,5.03391315513152,5.90968827722405,6.57958899713922,7.07087538175469,7.39761128435551,7.53828144854941,7.46201895195624,7.14899674341248,6.62220813295571,5.94022937174885,5.15403714215352,4.26971202972345,3.29032143929725,2.28888041559037,1.39033905929421,0.804747895920615,0.703223169994086,0.768411697324392,0.433055246280666,-0.188453313671865,-0.523554480075445,-0.665586946817158,-1.18542652693647,-2.10271955726034,-2.9818771306614,-3.61838321869017,-4.08334746278365,-4.48299224107152,-4.85844593168324,-5.17638867937702,-5.41445234051155,-5.59883883284784,-5.7352777932742,-5.77691901866612,-5.6668693223215,-5.39551332556556,-5.01895464353165,-4.62014580866636,-4.25262189003053,-3.91970886511582,-3.59951589254603,-3.27778195505723,-2.95118678961143,-2.61314920445377,-2.25469588456322,-1.87732575185262,-1.49235538321845,-1.10763692846995,-0.724098389206255,-0.346012322263095,0.0121400916406759,0.331198491531827,0.597062517202242,0.80572400056654,0.963581929989028,1.08491342650724,1.18487742753259,1.26956346729747,1.33350112195818,1.37098463231472,1.38818979322003,1.39930955933928,1.41311239559812,1.42937569164046,1.44556625248974,1.45751919213531,1.45285315923057,1.41513354989453,1.34461168260831,1.2718911673673,1.23912625960177,1.26176693691538,1.31574735296667,1.36801673187434,1.40880673005765,1.4405664447989,1.44505074311205,1.38508718458918,1.24329138913453,1.04279713258981,0.823951591457014,0.614191764923214,0.427069677332345,0.274641537820479,0.164725996001253,0.0917413079563664,0.0433473068749636,0.0149484160033487,0.0109038619021452,0.0356929748244178,0.0902563409025609,0.171882617658439,0.271129413657618,0.373490910143371,0.470052266886867,0.562524927874337,0.65301983908777,0.733104821457515,0.788022318728782,0.8086492209371,0.794828059414498,0.749783703402921,0.676638382535572,0.579394629377354,0.462751857618884,0.33057611992583,0.185209184896225,0.0241846028173715,-0.162582032825996,-0.380175341251858,-0.603488413576825,-0.775207283474058,-0.84710200592865,-0.823297534608281,-0.749622688458337,-0.6624774846715,-0.566706018228526,-0.467596344952873,-0.402527736410866,-0.420986201931873,-0.53787920322252,-0.720692316356763,-0.921664928933383,-1.10991905314537,-1.27144722781516,-1.3950864977089,-1.47128829581921,-1.49710247701677,-1.47110264072932,-1.38747303526441,-1.24427463591086,-1.05477831709509,-0.842518949257946,-0.625500483553439,-0.409973834776912,-0.198227859022732,0.00378417295820324,0.189613165505289,0.360117114104055,0.522355527511821,0.67823774640942,0.818009498328102,0.928705953207095,1.00582433160582,1.05255282768629,1.07144201101713,1.06086760731153,1.01251476499428,0.906898172123888,0.726089606543562,0.489568045109407,0.269553450817902,0.145753536516287,0.138828193470702,0.202481165452161,0.282261025284627,0.363350309103747,0.451967300538591,0.527935240906474,0.538572917061792,0.442029058530783,0.245309932417465,-0.00325151216832467,-0.250649560624827,-0.466516136905711,-0.645550972461973,-0.794499765667871,-0.918071284588,-1.01205455801061,-1.064998919701,-1.06617108775921,-1.01534035508838,-0.926224436943069,-0.817944285048719,-0.702588986040499,-0.583061121275958,-0.459941226275599,-0.333429684614457,-0.198945011840111,-0.0490525321225618,0.116738878211986,0.288137270258343,0.45132325767187,0.596523701015137,0.718769469597575,0.816421075922045,0.890833903482309,0.944522872848313,0.977933868974706,0.98904951221881,0.976814319078581,0.943849682415058,0.8927276554766,0.816320535167902,0.695179599358495,0.516909509408564,0.307059465756142,0.132166795550832,0.0548840696377715,0.0826001881485469,0.170192373935177,0.272199733552772,0.375364242574607,0.47443404574514,0.536070539236516,0.508740922385554,0.368685518993148,0.143954282125482,-0.110291671459679,-0.352691179491872,-0.569462707971265,-0.759019344287865,-0.917193924804208,-1.03793756080638,-1.11717206207808,-1.15075407625743,-1.13458043334707,-1.07089999431062,-0.971040724870552,-0.849101299035352,-0.715395084727927,-0.577725615754255,-0.44541309876822,-0.327091002327304,-0.223588703062528,-0.125534109721617,-0.0209690478327065,0.0922905552584735,0.201347959662943,0.287861378435778,0.345412740870073,0.385446048015419,0.422989637015323,0.458036160584802,0.475558116806296,0.465341496259527,0.437486866336504,0.410816026977841,0.382004530826115,0.312677441794858,0.161439791267785,-0.0631895715273001,-0.289397321197071,-0.434487156164708,-0.471170923576604,-0.432837179240709,-0.356879529077546,-0.242995332799182,-0.0776108168531221,0.115960765152822,0.27196985616616,0.328797377795022,0.272759006965297,0.13608139994905,-0.0382150962692743,-0.223186230958528,-0.406405938373403,-0.574724419906581,-0.708684428580847,-0.791000128416588,-0.814615797128651,-0.778842772771245,-0.682078219220385,-0.527316598893761,-0.334657937522545,-0.136139333597548,0.0484952623506934,0.223726610857325,0.401866109828405,0.581694338700291,0.746457183856033,0.877455095520517,0.968223834974534,1.0287046333843,1.07377579733371,1.10550274996164,1.11194368069044,1.0866874925558,1.04195135283831,0.995253568322313,0.947048702861012,0.876611956446522,0.75672231052298,0.570869539491267,0.326316617252796,0.061241126849463,-0.165575450221041,-0.307255540632876,-0.357575151749672,-0.342786150937621,-0.287078366671533,-0.199417471858942,-0.0968944103079244,-0.0221267409866873,-0.0208952810468952,-0.10701824034016,-0.25814778589473,-0.439865340118626,-0.624219137046584,-0.791234147912761,-0.928226248893561,-1.03231091023105,-1.10604481991449,-1.14737680265487,-1.14865963773862,-1.10524930055029,-1.0179851969804,-0.887990382708608,-0.718984093257827,-0.526417549967875,-0.333818416860923,-0.154378189077453,0.0180195529959345,0.19541849833331,0.377754141209159,0.550560017017887,0.696296378148893,0.805342538640797,0.878435042398423,0.920654482178027,0.934293516697943,0.919279783505834,0.877223017621481,0.806373526177469,0.692169641278832,0.516949635635014,0.290998963421228,0.0663987599416653,-0.09645982348364,-0.177697531355746,-0.201959193742832,-0.194746495216418,-0.153306733897503,-0.0712939525236765,0.0212282871110653,0.0624358387567775,0.00765147862247005,-0.134848813779279,-0.319557604680891,-0.505920661313127,-0.67789324834347,-0.830088058922687,-0.950762291898646,-1.02496155678959,-1.04759648279039,-1.02530377935347,-0.966103438271538,-0.872866671832789,-0.747344410816312,-0.59540667240045,-0.42641717812567,-0.250183100555603,-0.0744713046077806,0.0979868548797438,0.270416119021589,0.446296603595684,0.620883596917811,0.780608048924013,0.912510206038286,1.01205656829541,1.08062074792079,1.11971190526626,1.13081384886717,1.1155039880687,1.0683006714135,0.971390058771208,0.807909028432374,0.589621876678949,0.367346215661443,0.200806293809159,0.113287353676888,0.0840185955507141,0.0866564936040399,0.119346910630491,0.185349377696122,0.257367011309436,0.282668489334148,0.22577666003749,0.0936644682752615,-0.082419542701955,-0.276055458678276,-0.470826306303413,-0.650111982297677,-0.796435702533033,-0.899955760217587,-0.959620605767841,-0.975213347515313,-0.942701554960862,-0.859047540260761,-0.730377052600637,-0.573956610735589,-0.41040057384092,-0.252388281444083,-0.100273740257648,0.0519951089596961,0.206583086211152,0.354977747324251,0.479781887431345,0.565896563212463,0.612659775614571,0.631991865271885,0.630699089284263,0.597218472945876,0.510150139637532,0.359275224674432,0.159266612913533,-0.0503266318236033,-0.218669268825823,-0.3099453569063,-0.32378087677956,-0.283860173490724,-0.206827840097359,-0.0963261961491334,0.0294533249088431,0.123065573609951,0.135020492344306,0.0504661841501372,-0.106555592152435,-0.296726997833613,-0.486958103829875,-0.657838854604659,-0.801330801566259,-0.911577066541639,-0.97655469482246,-0.983309161845876,-0.931538903715947,-0.833461459306511,-0.6978437769494,-0.52405045181977,-0.31753887221054,-0.101911279012028,0.0947528961398667,0.26275398670683,0.412765944202475,0.556956667507187,0.694474839392655,0.8146510319576,0.907636387807306,0.969430185583966,1.0014914959329,1.01002708078053,1.00161911482786,0.971105140226038,0.894155966093137,0.743423343971715,0.521572665787896,0.276762832001644,0.0779015352717615,-0.0310308854447722,-0.0538278059909555,-0.0212617511909022,0.0448583920124708,0.137616863728886,0.238561527405894,0.30245438797099,0.27999084609503,0.15320436432344,-0.0545012277298052,-0.297819151613234,-0.535042464156718,-0.740981736586294,-0.906221201984629,-1.03024398845635,-1.11447080947933,-1.1577810607152,-1.15555274469233,-1.10252793496598,-0.998558464070885,-0.85369739817732,-0.686545253623508,-0.513777572424148,-0.340038206503405,-0.16047325115523,0.0264092037108871,0.211542465222524,0.382170793033981,0.53319476056635,0.668515419474076,0.790495936394466,0.891488023964726,0.960694577203769,0.998111341079244,1.01434092901647,1.01525254306465,0.993154038438134,0.933576880720897,0.824046728520186,0.658258292834733,0.445816851817135,0.225269149438079,0.0554264086331626,-0.0230528889724685,-0.0176912319005601,0.0332874550462761,0.102688147496027,0.182809280583426,0.25628228256599,0.282285483708572,0.222943704876675,0.0738891081174225,-0.136268380797594,-0.367923094635133,-0.58854320861269,-0.779476596112876,-0.934545220948928,-1.05162988003798,-1.12366120487495,-1.14005114588177,-1.09714133488585,-1.00233425558545,-0.866238157626354,-0.696987293626415,-0.506491371401285,-0.315303616150041,-0.142148650043752,0.0102475171275703,0.153155500518086,0.296377121228368,0.437588261275322,0.564634769006652,0.665354862830136,0.735632995638334,0.778392133475073,0.796237733415859,0.78916472376983,0.757881322638195,0.700087022693118,0.60173703688347,0.445110083530224,0.237377984972127,0.026965937625826,-0.121431522436882,-0.173878050878936,-0.145850969683661,-0.0746461630104423,0.0154585261216012,0.113203563858516,0.196704265383334,0.227707893210715,0.174174563791264,0.0327378284514955,-0.171736764623166,-0.402411353854342,-0.624864427153965,-0.813840717179104,-0.956796984479672,-1.05558782535615,-1.12073421914498,-1.15704051956588,-1.15399624188069,-1.09582374751807,-0.982526043003377,-0.835716980273923,-0.681459847578166,-0.531579575115244,-0.382565701149038,-0.225989897745999,-0.0558819149400332,0.128702666656197,0.321595058289197,0.510679282753724,0.685004576232427,0.840670508773241,0.978520098272493,1.0980402140482,1.19512323319133,1.26452665338103,1.30412628957945,1.31762075719213,1.31148009837295,1.28695083272574,1.2356796958141,1.14360367821368,0.997459601915084,0.791174064243201,0.53778326047441,0.28096914365735,0.0826553016456438,-0.017582489393904,-0.0314981963282541,-0.00208141117069853,0.0413968111886417,0.0946376992849527,0.146282466418584,0.155417402977985,0.0762146977590914,-0.100030793684413,-0.337275190994822,-0.586435276639557,-0.817273524900025,-1.02268966378732,-1.20450813968889,-1.36219237255185,-1.49123854671974,-1.58440028960272,-1.63108654775094,-1.62001705228864,-1.54974699939532,-1.43655558113109,-1.30392762683478,-1.16180120303406,-1.00388811869953,-0.827011420089938,-0.64185587921465,-0.459883824061389,-0.280395565555583,-0.0975228691318074,0.0871312288737546,0.264774813353645,0.428352809210949,0.57735258593656,0.715175909608359,0.843437831861916,0.958855957394834,1.05499318113536,1.12554047028652,1.16615775428087,1.17664174251127,1.16301373772062,1.13316028333506,1.08468511783076,0.997645310571711,0.847390002316079,0.633604188576175,0.398611280907272,0.209807164870187,0.114350853817426,0.108596075217315,0.155884083745147,0.230645670878084,0.330565586633436,0.442008852628775,0.514416584631989,0.489846632331518,0.353648912328201,0.1417393150685,-0.0991580233353957,-0.344168085192731,-0.583612837925372,-0.801743972471308,-0.976224000606966,-1.09455925298494,-1.15790593696068,-1.16584193898929,-1.10875686833456,-0.983435337117969,-0.808676448469139,-0.615807093848973,-0.427852011167204,-0.254636172991654,-0.099863754831153,0.0390631266762726,0.172994940915279,0.309928660054691,0.443349280541399,0.560363714720461,0.657762990026357,0.740467898503642,0.807489537029008,0.850453398249524,0.866179345511518,0.861530455386857,0.841861206279081,0.797645518095361,0.705230989433338,0.544174648433258,0.321321225533176,0.0824953434519202,-0.106264793938431,-0.200838446331241,-0.20551492154578,-0.154125406022636,-0.0707032242056251,0.0380305162972777,0.153303888368834,0.228368951774083,0.215671085624481,0.104308038043579,-0.076069532152596,-0.283425040851043,-0.490457487153085,-0.688563504095917,-0.872784701223407,-1.0283360214374,-1.13489254666638,-1.18154752079962,-1.17204821526567,-1.11598032571798,-1.01994673180481,-0.888104156370807,-0.72912737577816,-0.561098059553112,-0.404562574937403,-0.265694753790987,-0.130448961006173,0.0184961981528684,0.182859801723863,0.350751426962276,0.510136509682009,0.65457451119084,0.782091923381068,0.893447097638273,0.987197079135578,1.0558741872372,1.09303097862588,1.10244588049045,1.09203721750142,1.05965437497252,0.992854531968307,0.880616234455628,0.71711857225133,0.500919024995107,0.24901443896584,0.0125738512645034,-0.143949655970239,-0.193726216008833,-0.166551686153065,-0.107454115221147,-0.0317902968926852,0.0608328162681403,0.140622348981775,0.145630502125638,0.0350096755830324,-0.170836344602995,-0.412253006767546,-0.642554820553784,-0.85040503220392,-1.04066969382579,-1.20974832641948,-1.34356051153975,-1.43043680337268,-1.46798118504272,-1.45900430192133,-1.40637936356039,-1.31308203994049,-1.18477831400531,-1.03137576960843,-0.865888536387946,-0.69943020742901,-0.535665149517763,-0.371962274281604,-0.206373503242287,-0.0404174066054816,0.124363973915653,0.28715960197252,0.444147704999327,0.58813499074563,0.712927812058143,0.816295884629085,0.899634908917963,0.965739643161606,1.01483067484272,1.04251532706494,1.04438661497807,1.02090683611293,0.971023586284525,0.881074726824974,0.732232620888563,0.52960264990388,0.319151431558551,0.163154664713338,0.0955787354426406,0.107220052947322,0.172492775463591,0.276333386855783,0.40611051786135,0.52807310915943,0.589998915445292,0.553383689769685,0.419343417376774,0.222421986730836,0.00325177591282242,-0.211320628983008,-0.406161484597645,-0.565352339216162,-0.670053281485506,-0.710434777755137,-0.694777098196093,-0.641694298419938,-0.562987126512705,-0.456900055888053,-0.319638994732002,-0.161129119358934,-0.00498438218531766,0.129612999190615,0.244556749676053,0.358202588310192,0.48317196538745,0.610271241257376,0.714661449688958,0.776301464127225,0.795035216627279,0.788495999055884,0.774667154374358,0.752206450235882,0.696041708374965,0.575565420287154,0.3830595999567,0.149617649021271,-0.0666328503632884,-0.215091521343404,-0.282547577483172,-0.288892444223775,-0.254848912152939,-0.184464649764515,-0.08523462907571,0.00678023488813737,0.0379262611795739,-0.0256506650559627,-0.176329141790944,-0.376221361012465,-0.583216830530521,-0.769751752117516,-0.925881167149635,-1.04999055140748,-1.13826295031105,-1.18285489513615,-1.17731203893262,-1.12047116012316,-1.01524065732341,-0.866411997036175,-0.682202244909333,-0.477934795090923,-0.274243256813602,-0.0863033616045115,0.0860054549794613,0.253258262045981,0.419778046373574,0.574551334705547,0.701039741298864,0.793202830867185,0.857698814353933,0.902114553594209,0.928115747294709,0.937253536690078,0.933011728404648,0.908287059344725,0.837350569491154,0.693621185649011,0.480146028877502,0.23973593536345,0.0331582702730777,-0.0947690995123448,-0.133638887798836,-0.0997100201505336,-0.0154758341428144,0.0993697657193555,0.217950121091873,0.296949544325296,0.29037241864772,0.17917414737982,-0.0144392142922241,-0.245041763355507,-0.475646001728823,-0.691428945011957,-0.888741175152292,-1.06147630502664,-1.20202219008183,-1.30666509164419,-1.37028727373747,-1.37962761721986,-1.32347668139258,-1.21146795958637,-1.0740351811709,-0.939374859504471,-0.8142069572882,-0.688058647789586,-0.550715691402897,-0.401599366574806,-0.244609585358547,-0.0794780886780816,0.0976406360743424,0.286251487154072,0.478708707897701,0.664663639476303,0.832918636101094,0.970085592577805,1.06583169747567,1.12196257100177,1.1503175030224,1.15875064523198,1.14328444341712,1.09702646034173,1.02323426582366,0.932568713293038,0.823794534625463,0.672742572435731,0.453420082976533,0.178910853374783,-0.0838952483752485,-0.253729646425535,-0.295391512731047,-0.23726568932278,-0.130367910231238,-0.0046385771251726,0.125104713681086,0.224862266872724,0.238265528210074,0.125945639193194,-0.100843271677451,-0.390909284639139,-0.690979511232051,-0.969196995169315,-1.21042471220874,-1.40283998361286,-1.53527350530376,-1.60284273282539,-1.60789829902881,-1.55400952220857,-1.44254292130718,-1.27733609802715,-1.07197019658588,-0.850863415262227,-0.639686885656715,-0.449376388297479,-0.268295529178169,-0.0742210700479793,0.143392154999306,0.373861678249569,0.596578572039062,0.798336350777336,0.978930388714411,1.14205661850771,1.28287927605541,1.38671658105974,1.44243061841222,1.45696336278993,1.45243356425525,1.44401550057071,1.41983048655682,1.34636529128866,1.19866149571068,0.989426054001564,0.771408124423458,0.609080873729151,0.539820011015428,0.556959925396054,0.630860397374975,0.741792306040367,0.881115156509529,1.02157425229903,1.10611177607787,1.0812293446761,0.938356541756615,0.71637604806024,0.467807502692549,0.227466039257108,0.00841728884287937,-0.183292734627014,-0.337490322118967,-0.442532506644776,-0.492981394644075,-0.490305774955753,-0.438406832966719,-0.343151236368408,-0.21498234101243,-0.0671501860513338,0.0880691015351169,0.238367616332875,0.371027201274702,0.481314093512248,0.579997492171339,0.684163659255561,0.79767639279604,0.904859014356912,0.98533049441316,1.03144288315009,1.04833358964059,1.04033573395898,1.00405877282654,0.935702405062916,0.83673869277217,0.704421371738794,0.520902515388102,0.264933124717054,-0.0572741432732478,-0.395769019959857,-0.680325809855293,-0.866948888393621,-0.961875171510998,-0.999392842625481,-1.0041572765471,-0.986853176339138,-0.972937625902603,-1.01454174290151,-1.15881688939547,-1.40756288180645,-1.71529083547408,-2.0258191329529,-2.30721451022927,-2.554462852292,-2.76831464308497,-2.94101466551574,-3.06296207726108,-3.13330300736163,-3.15529631677998,-3.12539793242173,-3.0366652185584,-2.89328939099132,-2.71470294685649,-2.52339784022162,-2.33199836440878,-2.14212607892416,-1.95156059849185,-1.75983681012659,-1.5694747441454,-1.38406018320483,-1.20368610354531,-1.02718450313258,-0.860421702352937,-0.718086642263816,-0.62274045630614,-0.58915172868938,-0.609467876081931,-0.660486700047162,-0.658467330264375,-0.473177225202108,-0.138381040408098,0.148560082113444,0.379137029475625,0.745755877131789,1.2395499593583,1.63722343892374,1.85527469653635,1.98102988055117,2.07782192856021,2.16344616167215,2.24817148396627,2.32784863687708,2.3970636099839,2.45488451169992,2.49987656757543,2.53979935317424,2.58833119549344,2.64846159022707,2.70313069744741,2.70745961880187,2.62208181561254,2.45947367443357,2.27517455052088,2.22382560528969,2.50415370682572,2.97860858549135,3.21606394612491,3.18587176387606,3.28690603641234,3.55960631542238,3.61403830004353,3.29962999965368,2.81380938448891,2.34301437069679,1.96436254191634,1.67420177181798,1.40252373173625,1.10377185856941,0.802635441617287,0.543108949671301,0.325696536562972,0.0986744563262284,-0.180373484118763,-0.492072028843523,-0.782353869190931,-1.02567630104794,-1.2444854836168,-1.46808525963883,-1.68524654148632,-1.84819296322979,-1.92309406920169,-1.92843474806409,-1.91811104041775,-1.93199301201651,-1.97184283863409,-2.02192154535983,-2.07754251148762,-2.1452926863457,-2.22401012854561,-2.29888893219326,-2.35651394403495,-2.39397958488347,-2.40208497203651,-2.3480771602373,-2.19680809275431,-1.95412029931509,-1.67178987887437,-1.39976757687887,-1.14488515787098,-0.883608059061447,-0.60319965707344,-0.319192635605727,-0.0580403757679222,0.166872405686297,0.360810789377059,0.53530477122074,0.694065187854944,0.829295020286174,0.929083606542027,0.989999626280304,1.02360693591503,1.04610696713336,1.05987886429277,1.05210968431645,1.013113460424,0.94410187603686,0.840489045746858,0.680493289236082,0.445572682350171,0.151662622114505,-0.148641960314433,-0.398823963372969,-0.573302924418048,-0.681276976893299,-0.740735661946829,-0.756448812040641,-0.72915431528384,-0.681064903182635,-0.658065106641924,-0.69897491513045,-0.808309687636564,-0.963963048861422,-1.14285953846963,-1.33008961634115,-1.51064136709624,-1.66629407830178,-1.78233240171053,-1.85076975066207,-1.86600930015815,-1.82148192083467,-1.71281406164164,-1.54420450001471,-1.33124749878846,-1.09652529269263,-0.860232006430411,-0.632041458401784,-0.410001979600698,-0.187524450598827,0.037316669581437,0.258119932383914,0.463548756214694,0.642555782152044,0.78822326432619,0.900471864765302,0.985110162960074,1.04726646897214,1.086166894807,1.0984346400949,1.08302200585121,1.0377796723255,0.955425651817472,0.833861224877973,0.693454658274179,0.575593460417745,0.516836915706993,0.52595996107201,0.587567365317512,0.681202714748168,0.790181757734158,0.895025633706419,0.966712822020614,0.972202820943409,0.891312720809775,0.732856721102196,0.53346366350941,0.334301096568211,0.155605426701223,-0.00426763554237719,-0.146846334976181,-0.259331739981036,-0.325967337535088,-0.345440300618659,-0.328789654018043,-0.283637281798913,-0.208969169093827,-0.106411395953839,0.00972316773546425,0.119050653383944,0.211505646022119,0.293364697452027,0.376768063079395,0.468178658459087,0.567839325176219,0.673578007336521,0.781888753023087,0.890425916140154,1.00132012531758,1.11633143181127,1.22723247754751,1.31801390583673,1.38030790879378,1.42094091333073,1.44950947320363,1.46306308391906,1.44960218409641,1.40476483246544,1.3366370391072,1.24978934920899,1.12995427427044,0.954631952259169,0.724607841079699,0.482115528558472,0.289793905187462,0.185880697661274,0.160776317461746,0.178881884885961,0.215721339425116,0.263073994685893,0.302664808216103,0.294455871075635,0.201303929112205,0.0181682430792915,-0.227961109097568,-0.499055058141045,-0.762118293396883,-0.995409322904451,-1.19231246514498,-1.35844509101917,-1.49654333718853,-1.5947343168442,-1.63701514962824,-1.62374731293568,-1.57242511640245,-1.49807758350466,-1.40392240829761,-1.29509663736739,-1.19006684837838,-1.10759796777898,-1.04621738465118,-0.985366674429516,-0.90546508468885,-0.800572665082949,-0.674623084957731,-0.534547705609803,-0.388062700622169,-0.241440227134293,-0.0967158240086656,0.0457739571927865,0.180557027022654,0.295667539359719,0.381132235876024,0.437605880279427,0.473154629113961,0.491379322711775,0.485693860330844,0.445407097535934,0.363507159503148,0.236764682902576,0.0632539679198574,-0.151729881637696,-0.383555709228352,-0.588121100338609,-0.725027664478098,-0.785928043038023,-0.795673491174479,-0.783848400974521,-0.763741594587266,-0.74439514914815,-0.750669070512035,-0.813472988036352,-0.939310098345118,-1.10221789416864,-1.2687425427753,-1.41915772988158,-1.54003062082436,-1.6117314200691,-1.61824618914874,-1.56315931252379,-1.46265619757674,-1.32464306963599,-1.14545117991115,-0.927372765757623,-0.689851907074915,-0.458299247095798,-0.245266623064449,-0.0455990760444491,0.154013089460429,0.36626446049003,0.600786885485474,0.8608980634581,1.13914927710343,1.41985574802364,1.68715437443833,1.92811794855962,2.13071752674699,2.28550569142087,2.39030780313314,2.44945922185872,2.46789217248312,2.44608166919151,2.37620488435585,2.24252412322188,2.03607206126784,1.77758397230138,1.51910692159747,1.31122078943815,1.16790827622491,1.0685331152442,0.990279232494014,0.927468159046433,0.875702696454934,0.807731851061566,0.679370459411394,0.464406893571133,0.179036910492996,-0.132138204455162,-0.43059491553871,-0.699910146167761,-0.933962092825464,-1.1246019661818,-1.26814455079754,-1.37404366251515,-1.45395908774687,-1.50295369083874,-1.50039083321434,-1.43014502000392,-1.29686355886391,-1.12738150739928,-0.960273273482618,-0.829188031925539,-0.74899435406087,-0.710170169058601,-0.685320563400178
