0.278037251446998,-0.0981879384953256,-0.877159295018346,-1.59106073353064,-1.9326248502821,-1.99943386562888,-1.94685353185007,-1.83399396809529,-1.65081358920235,-1.35833226841432,-0.98320572232289,-0.62765787665624,-0.368608700385858,-0.192585564886198,-0.0430233137633439,0.0846508428225791,0.152410693761038,0.18807530610515,0.294060242188081,0.507607744204983,0.730838148085609,0.858489007594084,0.912770442678693,0.981814158988297,1.0712640910904,1.09829083022698,1.01513646115221,0.872700848189607,0.765469948506732,0.753687128466395,0.826703107081113,0.909057491158244,0.915157335485524,0.823123422315097,0.688774112606808,0.584798000117648,0.545471374038996,0.56393512545708,0.604911761550245,0.611972790149985,0.534992408348385,0.367818086226437,0.148992231422719,-0.0784348579130828,-0.301054546327945,-0.520483899673684,-0.697865777624856,-0.738942759705898,-0.587255171011163,-0.326643077438872,-0.121038958782663,-0.0453417754876181,-0.0493079063688704,-0.0867916150136181,-0.178327129457225,-0.317359962788607,-0.407213741816357,-0.354543846758258,-0.189954168074813,-0.0382225975003577,0.038903615396441,0.11111244437306,0.234760624342004,0.305333187526314,0.183509194251794,-0.0561618135093759,-0.163544666581666,-0.0282749143452394,0.186342529230334,0.281028445191624,0.27261120546201,0.317722062865765,0.44971403632179,0.49723963455796,0.274575103570949,-0.21416570658377,-0.790801354746383,-1.26608080144809,-1.53147208391321,-1.53913018970284,-1.2970875293407,-0.904223095906245,-0.513835244260178,-0.219413294657939,-0.0134645184886454,0.119304620908699,0.128552041715508,-0.012408232412354,-0.174320410007736,-0.138337207961423,0.166759333084635,0.571539950787426,0.84523756306447,0.88781044250836,0.722435098635331,0.412446214096444,0.0447553831871359,-0.286049663492408,-0.528676507010726,-0.669790308000917,-0.678698941868405,-0.518902296444158,-0.225339679963605,0.0802534237122676,0.282398812017947,0.36644976490257,0.394910326578766,0.393483944532186,0.299532101857454,0.0504025518772437,-0.295957308848895,-0.56471661060147,-0.604458375912834,-0.415248131976245,-0.129390470162871,0.113885890018693,0.25667476484802,0.320752064737883,0.354812508632766,0.365956340108042,0.304517034423088,0.163106287135836,0.0637692902949438,0.150040893763003,0.394109308694333,0.603494174612895,0.62224658114643,0.447412537102218,0.157379076713318,-0.173466723368316,-0.461382786153569,-0.607250959688582,-0.576773496733619,-0.44440828049342,-0.298470007027676,-0.144407902848741,0.0343770028631424,0.169105834677838,0.154509145128095,-0.00663472396809829,-0.193524007675006,-0.306683114172872,-0.335839497001087,-0.272114975165497,-0.0532343391249023,0.325236236739889,0.704356308760937,0.876966496343533,0.808070929150029,0.653868965129146,0.553604341325874,0.492301030259861,0.39459257774762,0.265386043490521,0.179486395804258,0.17684361853211,0.217370596621755,0.219472557999806,0.107950711335845,-0.154322015718248,-0.52720462924746,-0.882552623389803,-1.08552080930508,-1.10757052264512,-1.02829853397947,-0.921802736664588,-0.781013599022944,-0.563238350376418,-0.270937054104254,0.0363472127374149,0.293943546031597,0.4790367130024,0.609272221631034,0.706239960174881,0.769494047511011,0.781981365061204,0.725805778143759,0.598104695308321,0.434560500099067,0.304633957197522,0.241010368586184,0.183663270309367,0.0555829635315175,-0.106640968946166,-0.179865885285453,-0.135492631966073,-0.104651994726507,-0.206871461514258,-0.388193163363478,-0.508068979744011,-0.531954305818022,-0.536991003553678,-0.550181551780273,-0.495035882276637,-0.32582659573569,-0.128725234318264,-0.0304984747086803,-0.0395631296941738,-0.0364670413131155,0.0655444070300672,0.200435346823404,0.239826291086957,0.172191970271969,0.119991762384343,0.179789592340829,0.302860739495837,0.349480195410239,0.24095559619601,0.0510523199421129,-0.062998568736429,-0.030082524249348,0.0585889135794473,0.0631930441011064,-0.0445806520387836,-0.162791414130305,-0.179393587258005,-0.0851867032345737,0.0304891157258999,0.0820278197959461,0.0643629720602272,0.0209339560091405,-0.0234881837717852,-0.060522776633061,-0.0716806504821672,-0.0624424524529731,-0.0874207227573444,-0.170639715660339,-0.224801709818734,-0.135529038452186,0.0679998868887618,0.208560695102852,0.163468556547129,0.00802416810914067,-0.0979868769982601,-0.114660333385225,-0.128980267665015,-0.182681197796052,-0.204051776477577,-0.138570721607365,-0.0446654388183,0.00533680459668003,0.0386589278242811,0.112018583729448,0.185682817995088,0.164917296669961,0.0482741208510757,-0.047539138225512,-0.0208710859805117,0.10751630999409,0.235111956271505,0.289541133843026,0.279011499044282,0.259651565901008,0.278031232590484,0.322874565528527,0.316432273524026,0.189217783919595,-0.0170601369423944,-0.164162547330433,-0.165517097415767,-0.0888566656223782,-0.0752819529644778,-0.165264629952379,-0.243788861004872,-0.184094565837565,-0.0207416162590412,0.0789366945592274,0.0263154075998004,-0.0702122986808285,-0.0470962836221221,0.0946385708234493,0.182068976477204,0.0875687001401805,-0.106947693788279,-0.209406260294955,-0.15684369823532,-0.0880731672380722,-0.154504048139933,-0.315476026129458,-0.385176599165217,-0.270388474461082,-0.0918725961042571,-0.0327597728855451,-0.113168683606229,-0.184545341445465,-0.133628786678833,-0.00915311109233656,0.074818375139288,0.0867353424221004,0.0824930902200225,0.113525986417755,0.180231829294294,0.24318620919881,0.240159772651725,0.127765786630715,-0.0577231188991974,-0.217889711898531,-0.292657201131058,-0.300371114541847,-0.273986707933844,-0.21473133498879,-0.112880581761008,0.0321305660226849,0.204256665247957,0.348288961438874,0.378781865221338,0.255652722309408,0.0471319881141044,-0.109953745063745,-0.121773104111958,-0.00613335363090417,0.143883610991542,0.245608643757579,0.271995201162483,0.23891051021403,0.169287279116738,0.0624261443512571,-0.0982940268682109,-0.287090726914323,-0.405080111215705,-0.359568048148839,-0.171834508149525,0.0448938358822494,0.208768195403231,0.310605466365449,0.345355084970321,0.290419751710857,0.167755289629651,0.0529033657096215,-0.00240876942857183,-0.00918932405610262,0.00136563541612982,0.0122507552996709,0.0130822642607079,0.00474499513149176,0.0111720300897134,0.0402366944758327,0.0393105571017181,-0.0467524951583997,-0.173168722687525,-0.230685868211381,-0.194316164031248,-0.147146672646559,-0.140209230643966,-0.128513504923848,-0.072829800020077,-0.00935327503292263,0.0198903375181809,0.0358481155233091,0.0813493506318498,0.144754875653483,0.161979951706001,0.102001628253704,0.021179955519727,-0.0059234753441276,0.0152762576981592,0.0281472375327538,0.0231520810679885,0.034244239172157,0.0643431172704969,0.0907148289167499,0.119470338540063,0.164924502162178,0.19911555588453,0.18106121054507,0.116595658262139,0.0512988275930643,0.0264605866125289,0.0597777500176254,0.133968529428335,0.182061270360299,0.115467799900497,-0.0944593164516429,-0.360315770916752,-0.530624045644755,-0.515715498351602,-0.353010762535701,-0.148251456291319,0.0179020172334014,0.122151770555526,0.184518554602216,0.240007300631667,0.2856049809964,0.252458264436574,0.091527848740459,-0.104687289563987,-0.151208008286913,0.0176973357259457,0.257371217714153,0.378905281783084,0.338403980239825,0.208578475324135,0.0332248301868858,-0.198968574273597,-0.455564862734829,-0.624296584596039,-0.613268370644441,-0.451621297138705,-0.255118411915079,-0.102326578879077,0.026738057005256,0.180073375947567,0.323320075210861,0.350666794597514,0.236128702785206,0.111283405441708,0.106520900050885,0.1626828702493,0.125152334948839,0.00314909889066285,-0.0248273182400035,0.0954828651854054,0.154395780729592,-0.0479683430931153,-0.391883169582347,-0.564268903739834,-0.460325878478014,-0.299163908294759,-0.319262523841757,-0.489473787172256,-0.58239098578857,-0.45891370896435,-0.208773364655897,-0.0268628853357328,-0.00504055945619487,-0.0668128840199351,-0.0846378712551511,-0.0266017742189661,0.0317483744462594,0.0267912599459726,-0.00448956047484308,0.0215538919352312,0.122459872948438,0.230789787552281,0.283832253526011,0.295774714699302,0.314525174699056,0.32384082838183,0.245628453789547,0.0656123667114656,-0.0988795351380931,-0.112597556066507,0.0263127926034941,0.199413464724155,0.311611272545502,0.37279271731047,0.440152584187923,0.520553234134372,0.55248412061355,0.47604980907957,0.299925817532267,0.0937942002089904,-0.061091345698557,-0.10249162872553,-0.0131483567867334,0.143767883176003,0.250293066134788,0.238311826249682,0.140558656973588,0.00803539425746451,-0.174109627308771,-0.433518719808375,-0.706346972261669,-0.859629231076157,-0.826910230810048,-0.66483208145396,-0.459664055542454,-0.247248396668577,-0.0611936546673851,0.0231682832401538,-0.0293119293080595,-0.135266794177456,-0.164407977415467,-0.0666700949188739,0.102023110096408,0.245709737989525,0.299713574065341,0.269133061305268,0.212411718850404,0.175591925227594,0.152492621993836,0.117755014042733,0.0717975208036036,0.0384749979792984,0.0451956884932569,0.112487895023743,0.225458024703532,0.30845125497231,0.282199939897216,0.171871902772298,0.107487593901919,0.180641973176236,0.341639988598423,0.472892814602035,0.52124720332072,0.513025263957673,0.474976741000493,0.402422252327287,0.295249120642804,0.167112763445475,0.0166558857968421,-0.155164344311473,-0.297578165416256,-0.345972112588094,-0.310911223450975,-0.260551429686846,-0.220421301261178,-0.180595432718167,-0.187921493710489,-0.309874308240075,-0.497579562373851,-0.602312986684004,-0.557162952534162,-0.451792859337475,-0.395657856325951,-0.378477506072462,-0.311928829345069,-0.172327676564976,-0.0501940491151641,-0.0494767736909401,-0.158817130907426,-0.24587171554818,-0.19134971808088,-0.0151909776649855,0.157179805882421,0.242981613830703,0.272100064550948,0.309963388789243,0.363123223412497,0.382729692738192,0.334435383987188,0.246051803580587,0.185262343217762,0.188226030907467,0.219753197467308,0.216543182316536,0.153948397300423,0.050832700691684,-0.0707808803884014,-0.196850243393815,-0.297055097065069,-0.32625340723523,-0.27041555197246,-0.172021862687347,-0.0867414487669456,-0.0293696608009081,0.01388829811255,0.0364820582107862,0.00581937563413343,-0.0953397917822864,-0.236548807640725,-0.347547208075515,-0.359965804182055,-0.261642642947284,-0.124264913416277,-0.0559442527113829,-0.0929558523220719,-0.154018080111983,-0.145375130789532,-0.0865368221782865,-0.0655442345535213,-0.095311695064702,-0.102259362915857,-0.0436407205173944,0.0582149696213047,0.194852921792168,0.382990303848954,0.575516628287754,0.655662099525489,0.569752502606052,0.401094402294785,0.263431009593027,0.174733572118391,0.0868429955727408,-0.00565055665175085,-0.0515867601916289,-0.0290206346306937,0.0112470723659623,0.0137691037183159,-0.00382870711745949,0.012355785945048,0.054084710033851,0.0519552193287268,-0.0142953889014093,-0.0642034777692481,-0.0146512056052106,0.0987335262354106,0.149629132120949,0.0711525458563038,-0.0755622909683732,-0.196156420412409,-0.263459776275341,-0.29811504553104,-0.314116072740308,-0.320335094790593,-0.33173151373263,-0.352672631883187,-0.37421911579332,-0.39039564929698,-0.388214812852122,-0.326135600623772,-0.168234316805661,0.0400703015880831,0.175270576104801,0.166418141883743,0.100655496749951,0.133830417887583,0.293112225451594,0.432030160414933,0.40940212499684,0.266643368804146,0.182178669293089,0.26481878863973,0.434894245889044,0.520791590844141,0.442523746004814,0.270398867157869,0.117709993752137,0.0256281078406826,-0.0275390309864921,-0.0554920280461892,-0.0577193264288146,-0.0534764582793756,-0.0553013575660489,-0.0265336089170522,0.0650231679765608,0.167424707831691,0.194712432720032,0.145420083111657,0.0965313193275791,0.0891282037345336,0.0925331235434482,0.0774240465032774,0.0571844354054824,0.0504511975912807,0.0558824472426877,0.0727016914893314,0.0953598933123994,0.0719237608954403,-0.0693665298206767,-0.306752337788935,-0.498094238727471,-0.536894678705298,-0.484340978437965,-0.46628930682288,-0.491650923669779,-0.469464442093394,-0.362652467032448,-0.224827055068708,-0.122089498466366,-0.108876200655174,-0.223682746395406,-0.397317890230035,-0.424036234435101,-0.166552377690912,0.228440776193971,0.450153846101543,0.367597212370016,0.14940505612996,0.0274821306586988,0.0444453977818012,0.0852403025727856,0.0817329804454142,0.0908046788274375,0.175141803972494,0.293547429049576,0.353749305612093,0.321541019324371,0.227639482630824,0.103403842981882,-0.0312595242963148,-0.121370792041364,-0.0748675911804611,0.142033993168247,0.40990307276917,0.518998385565649,0.375122281387355,0.109848245263083,-0.0646641365995382,-0.080787795110177,-0.033240311984623,-0.00293389907653608,0.0353808029406907,0.114456135886485,0.179001017010211,0.136987266630535,-0.0467362169727746,-0.329659628170488,-0.607150009021762,-0.738014106284292,-0.633996910573111,-0.367890230374659,-0.135221733489368,-0.0568407574902066,-0.0638342438111688,-0.0322242542169247,0.0212708027504209,-0.0289476175926278,-0.205173215529334,-0.346307877619294,-0.279053398265791,-0.0181834925333374,0.250889066292436,0.376712061359123,0.380634273348464,0.369411232083038,0.363540079858504,0.291500240713781,0.139460661049178,0.0076050609618588,-0.0165170543620464,0.031569095068776,0.057273889838193,0.0324806743564636,0.00452259230479441,0.00886490369853458,0.0274848358010787,0.0274306175639636,0.000704989522185849,-0.0316579291536798,-0.031042176857731,0.0285188135681552,0.119938313339217,0.174349816390518,0.154247187333619,0.094937058022668,0.0540834042492359,0.0396198813641081,0.0157560686717997,-0.0272530125520518,-0.054491870472211,-0.0590411256741998,-0.102127900404032,-0.228803259797003,-0.383950065376518,-0.474050203779413,-0.481236775369054,-0.455389467609948,-0.4190389690266,-0.342472096031877,-0.205238498771437,-0.0326610146649312,0.1311468937992,0.250938025123929,0.301516312444366,0.282037463041075,0.242744388721503,0.263276670494005,0.37638220540042,0.524672884447627,0.613431222181471,0.600746997348248,0.515279399394066,0.388985293922159,0.208568992869223,-0.0440264031242024,-0.329769564493056,-0.572748744704046,-0.743540547109859,-0.880953563567214,-0.998131259640024,-0.998801118784312,-0.76572655174876,-0.355508018908431,-0.0217591247230162,0.0382063096099475,-0.0806518826701913,-0.106540467121414,0.0647004293435011,0.250763022751173,0.245228086880248,0.0954953655285073,0.0345180630394888,0.191158000561769,0.45577716247329,0.618974376271433,0.580542490855464,0.4171913691458,0.284704389610939,0.274603759460785,0.358531488465398,0.448359921928708,0.48825736082708,0.49877702798269,0.555688864035715,0.705093531135725,0.863797211512774,0.840092335682748,0.516691705742985,-0.0146478398302375,-0.562744221489882,-1.02941477813107,-1.39665918266166,-1.58186071479271,-1.47503851497187,-1.13858945004541,-0.801930923232841,-0.58193051418692,-0.356982250376438,-0.0265850211782933,0.25210741563486,0.255272981087947,0.0301345359550248,-0.127985105026881,-0.00449835025310094,0.340000204253676,0.666799872290292,0.764621695226633,0.594490858454922,0.300667170447473,0.0638147470119675,-0.0784261990953628,-0.222720447631674,-0.39787418514798,-0.450291517636097,-0.201051506304323,0.322975010207381,0.8906689680028,1.28702194466385,1.46756029459745,1.49962895485608,1.4222979518071,1.19309363344494,0.745358608658809,0.093473796322329,-0.597706513047948,-1.06640100900693,-1.13166016689233,-0.854747492915284,-0.517032566101231,-0.387218213704879,-0.464900709939012,-0.491519346602184,-0.275559538196149,0.0530992725598051,0.214793391885532,0.147401583017398,0.0617727495827365,0.14156076242755,0.315022619471921,0.363981604580466,0.182281794524097,-0.144042402706618,-0.492803396578587,-0.847892000515302,-1.23321420556399,-1.57474933128507,-1.72711136439288,-1.63002737355843,-1.3610712334925,-1.00979629967062,-0.554076681936135,0.0831228293644301,0.868818865123102,1.61989004527186,2.1541962322379,2.43102867349831,2.50635473027824,2.40402251518409,2.10239494858563,1.62223712283839,1.03647218319791,0.384149471124629,-0.325874610956967,-0.988011337169695,-1.38486516473549,-1.39015993722534,-1.13584379021917,-0.896336755465447,-0.819715943176806,-0.829821848376502,-0.786334401856668,-0.659175454549479,-0.502475661498142,-0.346968109296801,-0.216574352758566,-0.175942093791768,-0.232129507362991,-0.252713198896837,-0.138451614217717,-0.0439425990916556,-0.255482554296571,-0.819653326089989,-1.42045910918117,-1.6890005850319,-1.56632678833631,-1.29576343426438,-1.09492783599527,-0.921101382041689,-0.580972060452406,0.00508314677702718,0.724091229197968,1.41498975027375,1.98353328729433,2.36435959151965,2.48671935923338,2.34818872637458,2.05140046932884,1.68786609396744,1.21509069477916,0.521951866454483,-0.368722102134119,-1.20461288187483,-1.65615119789379,-1.58535846809004,-1.16846809459189,-0.746447473183798,-0.532299047527729,-0.457795237889021,-0.328736612500803,-0.105117726640206,0.0524714851896643,0.0138352733729067,-0.13774083102644,-0.182003185810629,0.0263290869050915,0.418864613012012,0.750896469898672,0.792143804808131,0.505168343562775,0.0385247978499069,-0.424966448220343,-0.778764611634287,-0.985749509042082,-1.02913446491544,-0.896873321292239,-0.595886967202587,-0.158032879058377,0.364426658157852,0.888098056120648,1.29339390213857,1.47687133584576,1.42761403482426,1.2198146104305,0.911029712398829,0.48819238843262,-0.0363710085988211,-0.502343468676888,-0.673130110985678,-0.484395912180071,-0.158039258959048,0.0204208532119178,0.0205461314146523,0.0681914160750367,0.311067104600145,0.595057673052902,0.661366292723861,0.486979597304928,0.300505289605035,0.289559556451004,0.419039736542062,0.538227892760333,0.550909421456852,0.449919932497342,0.268483132014701,0.0505792555428191,-0.158799871747762,-0.333962760377995,-0.479872146754337,-0.592821312474279,-0.605585391746065,-0.425461102552046,-0.0589255874760092,0.348146021627434,0.624825396424326,0.690914035118299,0.553404021246031,0.247810257942149,-0.18666632647321,-0.686841880758453,-1.12370318355826,-1.31026607602502,-1.13327081296655,-0.705621411823837,-0.30539409262518,-0.106053323181627,-0.0344976168352551,0.0503522711307171,0.129614319276166,0.0738895389352057,-0.133535079691953,-0.331326831767123,-0.342908044481928,-0.148001190288973,0.112258488496424,0.258702524783709,0.190860309787971,-0.0740542593826471,-0.427126828585437,-0.732220366947361,-0.898196308358737,-0.904530959615758,-0.762345713613093,-0.468376280589399,-0.00983397820053126,0.585265170100698,1.20590916952701,1.684219085988,1.88512619886602,1.7673004568574,1.3618235511673,0.734746557963248,-0.0104642646686287,-0.733410383854936,-1.28825073503572,-1.55013936838131,-1.44894685529189,-1.05104946032349,-0.590207057284199,-0.301122416703734,-0.190551894742363,-0.0793078945703202,0.101728358771617,0.202215855136511,0.109684932615046,-0.0258556071420434,0.050544383148868,0.382858976748904,0.741418484884629,0.847508435099447,0.5983687313591,0.0834765385328837,-0.554320751442182,-1.21566641035266,-1.80912855794422,-2.20730524688139,-2.31738216887438,-2.1622453941058,-1.82389200305397,-1.33903743203959,-0.717889261426604,-0.0313842376480739,0.598861506376251,1.09372788662453,1.45249963344919,1.70336035207886,1.86412161830431,1.96083020135041,2.0368175958365,2.09545112432636,2.05576777670686,1.82772538929007,1.43055466736375,0.97281821527199,0.51243383705672,0.0128192954198556,-0.537860339333126,-1.02655176122859,-1.27215984748507,-1.16890110046838,-0.784681871477362,-0.33872511028625,-0.0514610363157919,0.0144496968961807,-0.0523851661443122,-0.161415675809811,-0.292772904342254,-0.419565066688498,-0.454255617542609,-0.32437233556045,-0.0548786825111953,0.254767144270758,0.494779956523488,0.566830965575986,0.401070468015885,0.01792174678577,-0.433411277279949,-0.754378393318939,-0.844752380688265,-0.755121559517581,-0.582716676234475,-0.34916771528122,-0.0200388856974731,0.374818015955296,0.702191139278468,0.830875641089562,0.754621775333594,0.601398662161831,0.525466152392985,0.575082250164256,0.6574516713409,0.648658365233103,0.531459628265897,0.396298711568343,0.314689161922734,0.251126588900589,0.112940935973017,-0.131327923181411,-0.397433736219509,-0.548103465859715,-0.508430224423457,-0.326820334123846,-0.132290773969387,-0.0305430113604414,-0.0304535678311954,-0.0667832892336498,-0.0954605535144435,-0.150137589416807,-0.273398577749475,-0.402106464543441,-0.392906977879439,-0.199636994227832,0.0399965224550972,0.156481772215411,0.136042152560911,0.0880352238190734,0.0692737601758094,0.024113565357437,-0.111570783153558,-0.309895332935826,-0.460528888846657,-0.459686386882086,-0.307083533376817,-0.122764786881128,-0.0355989947157458,-0.0524425011618796,-0.0731087663150649,-0.0269736131578952,0.0517143893354031,0.0873667977379528,0.0596340666525654,0.0127610488450698,-0.0138632882909768,-0.0306795700772636,-0.0652276288069285,-0.114144844284841,-0.146510939012744,-0.133493087610105,-0.0667506561284588,0.0251209928422504,0.0815857302857575,0.068450344225595,0.0205871179416332,-0.0138225619520142,-0.0468176437775575,-0.113940500439472,-0.189598271271994,-0.204895630521905,-0.137855553347801,-0.0302893383521142,0.0703085229821045,0.135083538676989,0.140537106514788,0.0848029077378396,0.010234625913455,-0.0268300197673155,-0.0123353244068265,0.00744513311810284,-0.0305378327058025,-0.127185008635402,-0.192846250029092,-0.136694761903998,0.0217621996423851,0.181069361094608,0.287201201545421,0.367503429752965,0.434479823174866,0.432607079186587,0.318318083226868,0.147148837180271,0.03161565156222,0.0193201137285445,0.0478835998034301,0.0332701029300695,-0.0198869083915463,-0.0304102174958262,0.0336357714373551,0.0900243128079283,0.0469685561126601,-0.0658171678539741,-0.140969330429436,-0.145052374281277,-0.138121214960505,-0.145019079546661,-0.103491843312441,0.0331729076727926,0.218690477074591,0.371638160852669,0.452365539636493,0.458463092965486,0.397847432964531,0.288185038426624,0.144638325264091,-0.0333179512202994,-0.230518959149239,-0.393345640538976,-0.473990350842613,-0.469110131947444,-0.395719393150255,-0.281008723912934,-0.191110678875859,-0.194808854311888,-0.267606239900944,-0.301372362978722,-0.241855989949873,-0.155328047672713,-0.130576718302309,-0.170656508091626,-0.210857447158289,-0.201577640420741,-0.145813959905182,-0.0797150591319736,-0.0404577620775841,-0.0472579448880636,-0.0948059270312822,-0.153181590604543,-0.181749781614775,-0.15885785684707,-0.0962884724147981,-0.0189225162295293,0.0573112864735599,0.126596985808157,0.19628428768562,0.285468323459388,0.389807546880871,0.461482588043945,0.468075815999681,0.452729057274437,0.475510646716524,0.504889977550343,0.437113799135125,0.234739902633323,-0.0127281675643773,-0.187700544349342,-0.259976756708515,-0.283850471145984,-0.318280657703701,-0.371501933624049,-0.399563478958644,-0.349697306295573,-0.225577050237047,-0.104881446723985,-0.0679190126227653,-0.118648233985991,-0.196386739713228,-0.246348579905191,-0.257269147848714,-0.250131307055497,-0.251676886679185,-0.266522427737024,-0.265171977820148,-0.217267445853205,-0.146446055599607,-0.122922076710068,-0.170647628222869,-0.211910154884481,-0.164225939270398,-0.0686938680505112,-0.0251251944982202,-0.00133443050795451,0.157170717212309,0.473573552972695,0.732814944698866,0.739304843393523,0.583281152211064,0.516337616494354,0.624637984904155,0.769177700497696,0.816417027653527,0.771282003049329,0.668758873415377,0.483818893736748,0.215643053140319,-0.0427691273589424,-0.199976763948451,-0.26949563644523,-0.313153225733919,-0.330339662180045,-0.267574796237495,-0.114650795690157,0.059268606550485,0.168181546237064,0.184671317268726,0.140832605343209,0.0690990096679055,-0.0168437802062554,-0.0777226591130031,-0.0561993210774828,0.0316129050377863,0.0832441016654734,0.0391340139998607,-0.0428953822501477,-0.0846149922642544,-0.0857995022402219,-0.0889376344846993,-0.113616861419511,-0.15323241669883,-0.183767794999668,-0.167515883842977,-0.0900026607980758,0.016908976288266,0.124563185549253,0.252828250371525,0.419770875912876,0.573695845056354,0.639859729506585,0.628545242009928,0.625686554700481,0.661039330531721,0.657121499460472,0.543117490998599,0.3589575634966,0.203629995580166,0.118658840805053,0.0566144543427411,-0.0534254874283039,-0.226225746359028,-0.399840040965837,-0.496613475400768,-0.516800835067449,-0.561764464524734,-0.725902239820227,-0.954512276693596,-1.06912810121163,-0.979539870204126,-0.805062943668093,-0.717432749809629,-0.732947918678093,-0.743279538938371,-0.683003068065709,-0.573645808812304,-0.458650509771941,-0.381797601868275,-0.381149071243183,-0.424253419689334,-0.392946682387827,-0.212727707415205,0.0317142845182185,0.182639633360899,0.193586920607116,0.165422476265931,0.210326340883069,0.342441822679886,0.509057289665813,0.668681401217623,0.799657374113108,0.867339402488022,0.84078688159247,0.744203196870019,0.642699234052588,0.553888262043181,0.409204663129103,0.134375520056004,-0.256861468136296,-0.675798676546516,-1.02898028969235,-1.2368001280608,-1.2310004641062,-1.01566481559227,-0.719545483497029,-0.499905495208604,-0.376158810272202,-0.237714185953417,-0.037603930088717,0.114274313505245,0.0917392769334909,-0.0898215310224021,-0.288748038293506,-0.357145102902937,-0.250582242799141,-0.0770005801370715,-0.0226561697888297,-0.183089807472359,-0.480755921022407,-0.757361191868538,-0.902840194224884,-0.888487794321525,-0.733589539490557,-0.469513205836125,-0.112752322255971,0.336800857904113,0.860354384403044,1.39570939837084,1.86513331471475,2.20896037137432,2.37742921773592,2.3284071048361,2.06968523481163,1.67158444208327,1.19676734458595,0.649375641260727,0.04844605610511,-0.47137773867235,-0.720267304406801,-0.653412929546541,-0.447602012283456,-0.310250839758391,-0.256948831156113,-0.166371458244093,-0.018940381776519,0.0485113930539259,-0.0538373914691748,-0.226010700157936,-0.300607943439926,-0.2359026611856,-0.121915678256126,-0.045972331411801,-0.0320928168967895,-0.0956505090355839,-0.271725364824192,-0.554309765279688,-0.85336485754169,-1.05998391917501,-1.1427447055501,-1.14111866443075,-1.06798841011795,-0.86717163941224,-0.48420630103034,0.0596893512754051,0.67760384722029,1.25795169827025,1.69189048788127,1.9265841855485,2.01505584546339,2.05909030305571,2.08663215899895,2.03453478503323,1.85372260910902,1.57039834596958,1.22665246206175,0.804701982140976,0.242306641749939,-0.463512793277634,-1.15496157717776,-1.54858524711157,-1.45931622169858,-1.02329729899936,-0.619204397550106,-0.500487373989131,-0.567668084254643,-0.584164170393782,-0.533329806393741,-0.608557946421168,-0.883249740106122,-1.17079263163428,-1.24484005313835,-1.06440203205098,-0.756497634374616,-0.501662445630322,-0.460339396282391,-0.686017440160245,-1.05212206398256,-1.33382263530018,-1.40531387979091,-1.3225856349384,-1.19587343794269,-1.02275919559348,-0.69265636583739,-0.147047959937985,0.524522584879825,1.17560833018828,1.7326183303414,2.1819031652884,2.47693568801246,2.53286374923999,2.30227937634162,1.80889967071229,1.11617559449218,0.303275378590088,-0.518707074868032,-1.18245289940482,-1.49038448944499,-1.33595385952,-0.852090818804696,-0.382094059523465,-0.191918106857544,-0.215096597719366,-0.191920077508811,-0.0581750804846847,-0.0428213002837295,-0.329988707037176,-0.768377752358425,-1.01323123424739,-0.885200151626204,-0.52645413309545,-0.246573562448494,-0.259025145290628,-0.551778411211484,-0.963270801387635,-1.32498700643327,-1.52894482223587,-1.53840612504485,-1.37941610953796,-1.0725436721254,-0.561134373653897,0.215050244413821,1.16027820638931,2.02506015788028,2.59845137304838,2.83781888861694,2.79925824782172,2.51398997792104,1.97831282422383,1.23414316918814,0.409539883774682,-0.327026189038952,-0.822663178935404,-0.969401002504007,-0.772376479608585,-0.420563330020095,-0.174200605367178,-0.0980293077696736,-0.00737987115483828,0.226359866142533,0.442203745454956,0.411006546552749,0.185911703450491,0.0345749790519218,0.0597968819197319,0.0784597253502926,-0.103436406265363,-0.460642093765969,-0.864361607996683,-1.30087532558191,-1.84251806191981,-2.44111696125237,-2.88494783680567,-2.9963913571665,-2.7891133315781,-2.38505473241478,-1.84388782344441,-1.14501295793175,-0.301185696774156,0.602888074855285,1.49870260595409,2.3743252218275,3.17427460886712,3.73712298427309,3.93924894394506,3.86887674273561,3.72781992843317,3.54706361104678,3.13260170444094,2.34042211731212,1.28765579739689,0.245319809977405,-0.554116440621912,-0.957731181539393,-0.90541716116197,-0.533506113862254,-0.168481055471954,-0.0499241343160656,-0.0690605873298533,0.064332673945408,0.37451938649181,0.530707303079515,0.303054928252878,-0.0818812768473853,-0.217654473750595,-0.0266231238990251,0.18097630431805,0.0715434447495741,-0.434226817685615,-1.17556544180109,-1.91422480070618,-2.51467133796896,-3.01619140914329,-3.483879341017,-3.80804785472844,-3.76880452616131,-3.31329244274335,-2.65480220303861,-2.04890734607255,-1.53804140667269,-0.970008712172101,-0.238769211797204,0.560640398128556,1.24162376965146,1.73657843095967,2.13746637783596,2.55165551890621,2.97813017459385,3.31357131809426,3.43559690002397,3.29897247592136,2.98227669790505,2.61520443253176,2.24575455698988,1.815605584784,1.26479836582887,0.601678440377931,-0.128876152836177,-0.851801972055563,-1.39698140181702,-1.54417788374351,-1.2633403897462,-0.856776561611544,-0.700965626051344,-0.841113206628907,-0.99157550233517,-0.953932894734931,-0.85676873260822,-0.910472890898147,-1.08314023205964,-1.14356482675751,-0.952315559509901,-0.613518972956327,-0.361146516161151,-0.358712889067815,-0.621687455543623,-1.07998417550665,-1.62683623470408,-2.09495512795989,-2.2984603479362,-2.17493810416385,-1.824324447757,-1.37121773858045,-0.860788552940699,-0.298460497953232,0.304169165398162,0.940087648273474,1.58378974850919,2.1446382417465,2.50652094803809,2.6334210778876,2.59743942603464,2.48244690287051,2.28381341132537,1.92136229344825,1.33173947415203,0.544902978978266,-0.279472100444273,-0.875590085766213,-1.02283732998522,-0.76305992741694,-0.424036636528941,-0.32002302339963,-0.423815663398425,-0.433843150049921,-0.19377213509551,0.0748820361687455,0.0529075271954482,-0.260062679204371,-0.556192808805483,-0.606013755150266,-0.479233379298549,-0.376968525070308,-0.39383138573569,-0.504224446214786,-0.678465953348079,-0.910382737278233,-1.14657975934007,-1.26986223624517,-1.19846424402548,-0.973150937301712,-0.693679056377593,-0.375542821841103,0.0710954649011425,0.707032420947644,1.4590401932071,2.15980942493176,2.64891813241323,2.8428332936623,2.76309401455196,2.49540456143982,2.08512900445597,1.49646094443805,0.718173547868354,-0.105878198264886,-0.700731292724467,-0.85964520904113,-0.652021108667742,-0.405796196552187,-0.404831141844609,-0.597052018249199,-0.686717947751253,-0.524646202618775,-0.294855162449288,-0.270324068704403,-0.48594008077605,-0.727650521497987,-0.788840804664969,-0.672312364965327,-0.563655096311226,-0.65478231467455,-0.991117745332394,-1.45257888597565,-1.85344591923788,-2.06538064637313,-2.08231440670313,-1.99459262114944,-1.88362081240229,-1.72944713414454,-1.44885660323168,-1.01179364222328,-0.448963155369176,0.240971983186429,1.06965127787968,1.92399215387362,2.58444292209995,2.93783376033204,3.08193791099578,3.167966871203,3.20565232437239,3.0674532695482,2.64348320025082,1.95698034717109,1.15269754234171,0.416690610594135,-0.0873213460256751,-0.26465343686001,-0.157717922360605,0.0275008809050009,0.0579801152469722,-0.0989549322639812,-0.247928267413834,-0.235068491923469,-0.173746582350894,-0.295087748419743,-0.617358418799006,-0.888619119390159,-0.87978584016827,-0.65974139666134,-0.527754156524953,-0.691463219645522,-1.07663878432743,-1.48610848365012,-1.86121915327255,-2.26935142574674,-2.6725250458369,-2.87745121123598,-2.76700004099978,-2.44579447133467,-2.06463149410931,-1.60399718160727,-0.952106566914356,-0.130768155351253,0.695801223213656,1.41233731931374,2.01984424436249,2.52382135242558,2.8948830492586,3.14350987324106,3.29816366062588,3.3038700766837,3.06705549694404,2.59293614600478,1.96277077404684,1.20616495491998,0.328095169622364,-0.545695599517754,-1.16282404544312,-1.32003640956953,-1.0374849912333,-0.576530357263396,-0.252770784654421,-0.171862998143503,-0.185608691391185,-0.14625696742025,-0.10481802462295,-0.189542031570143,-0.403008031412757,-0.633698095548561,-0.787008053982375,-0.83423337149057,-0.807810926237386,-0.822133346810528,-1.0405442947803,-1.52183770810823,-2.10170202275929,-2.50831921514009,-2.61315931550904,-2.50300600615402,-2.29773716632486,-1.97778515699249,-1.42277752933943,-0.566533239353359,0.508742484789286,1.59178145112666,2.45096553836531,2.97863223760972,3.24418546282778,3.35889980027878,3.28769612368957,2.86968949119271,2.05067915193516,1.02369973398833,0.0980165697989761,-0.522719457769157,-0.812427575423408,-0.849143630126343,-0.734466923518108,-0.550969302079508,-0.331814112368863,-0.0726961686994076,0.185967028261475,0.309607695716654,0.175438157978439,-0.158608908375469,-0.458977579050713,-0.534084256955588,-0.414546139638106,-0.293999930401371,-0.34126751188292,-0.60733244021645,-1.04996490879644,-1.5678557656582,-2.03564354906262,-2.36834109673153,-2.53843366086916,-2.50663411027993,-2.19481800068775,-1.58062176063954,-0.764826203185198,0.121719879736481,1.03111441092428,1.94226606272972,2.73930012493728,3.25540235369871,3.43428527091852,3.35314698742769,3.07324431984513,2.55833768147311,1.78360930008805,0.867331691094627,0.0443344656191515,-0.474083170393843,-0.602190813201109,-0.395178679133444,-0.0210011902992012,0.313334962182409,0.499872936631528,0.610743782320248,0.764569317043084,0.914663766093448,0.892442214787665,0.678434537929797,0.46846670294177,0.400277314536068,0.360259901901111,0.150250982104821,-0.282201805848927,-0.87151219324612,-1.57032914359544,-2.34222941224965,-3.0839345512327,-3.64601475826764,-3.91583474988917,-3.86576599390914,-3.56220991675959,-3.1198053133628,-2.58727492271938,-1.89468198472796,-0.986447631331507,0.00951964344078904,0.840440250064819,1.38333711502196,1.76973683698398,2.20110643085512,2.68493719993212,3.03967440378429,3.14927517593504,3.09378670571002,2.98295058817492,2.77642390164192,2.36143478030041,1.73349302707018,1.00527267176254,0.286847484471606,-0.343493240862025,-0.767927446781008,-0.84244408569861,-0.55256797666033,-0.118076023581335,0.153787244936677,0.160256847728596,0.0827628543585906,0.116006146106809,0.192287576037052,0.0906030389215034,-0.218451803759436,-0.488966712166912,-0.501879501470634,-0.340752565285011,-0.29384878055188,-0.540466593831579,-1.00250430840545,-1.48464541230337,-1.90113417306378,-2.32597305073637,-2.8137924010685,-3.22660332064595,-3.3223132261612,-3.0099373554541,-2.43340917308812,-1.79621836291367,-1.18152478531568,-0.556486591620711,0.117526133317854,0.80970436588039,1.42416676593607,1.86624563748443,2.11973178475986,2.2657480250181,2.41961011749025,2.63248862725161,2.83338583629345,2.872149835879,2.64754650422731,2.19480319718218,1.63054873604287,1.03335831879241,0.411056488127098,-0.236430096255097,-0.856040988862702,-1.32909314891869,-1.52011301417507,-1.39296532666491,-1.08936438137276,-0.824019442378433,-0.679257877493755,-0.568285229655513,-0.417276990901766,-0.290998795647546,-0.279391265379852,-0.335903017823191,-0.320900878458661,-0.177566242698775,0.0106886031100982,0.122772810359074,0.0957471606292772,-0.075665329567892,-0.377373261345003,-0.785495752663111,-1.24096392839689,-1.62847936523744,-1.81192599796161,-1.71598022842153,-1.3659257981011,-0.842032239105826,-0.217835942158964,0.450547489331427,1.11404835270251,1.73985889307211,2.30686208324302,2.76571118920777,3.03287223037108,3.06487528378403,2.91948852803634,2.69375183775713,2.40052628144056,1.95247623125711,1.29062073350799,0.50492991257118,-0.192621898380025,-0.604599861776341,-0.663578277273285,-0.464541259814343,-0.21710022309926,-0.112635970292257,-0.168045362721953,-0.228707998890571,-0.18811225081382,-0.150539064402724,-0.284095326343553,-0.573054358451293,-0.838015787731441,-0.961256007208917,-0.978845382273409,-0.990287521541865,-1.08323411944612,-1.30874374941781,-1.63437125121669,-1.94812604223426,-2.16778164535784,-2.2987696136003,-2.34630462924912,-2.25609493572569,-2.00180667456626,-1.64467862732801,-1.22708683767926,-0.676462257143632,0.0825746543314999,0.944423965539539,1.65314985615308,2.04012873762713,2.15634114256828,2.13910104643357,2.03079930540372,1.78637204190986,1.38691585020918,0.870758365803498,0.303776833228974,-0.199594675622472,-0.456250543421876,-0.317032577043923,0.16087847587061,0.681751720092107,0.925400141840786,0.825407890786441,0.577994767089428,0.350652033170005,0.104697983522566,-0.24072762833709,-0.561720166455694,-0.551890840847224,-0.146849579443319,0.245561236137517,0.325431703870619,0.305154913107461
