0.790508096014979,0.734819261674949,0.741323596751811,0.826836313933267,0.953754704247892,1.06444389045049,1.11580472504418,1.07985192733017,0.942506776846333,0.707392794077623,0.395368871248331,0.0421644712100475,-0.308133568144698,-0.613828317181943,-0.845659514309991,-0.993297500443262,-1.06561074234585,-1.08456799479789,-1.07628424249155,-1.06287127310076,-1.05756099653184,-1.06392871790059,-1.07815510180377,-1.09243404400055,-1.09798489369944,-1.08679649095729,-1.05196462572754,-0.98724959044134,-0.88687034263333,-0.746246174848169,-0.563623467894507,-0.341785506668884,-0.0888764616057598,0.182058271181519,0.45455077769394,0.710762407717557,0.933805620893191,1.11011514059762,1.23157635273488,1.29710763368353,1.31348393141467,1.29509519474904,1.26200344714932,1.23565970507486,1.23256376381618,1.25768937101539,1.30046726415809,1.33558765384496,1.32909117739682,1.24815063146243,1.07146330036766,0.796820463664921,0.443340271774545,0.0475892743271962,-0.345313331452861,-0.6929734480954,-0.965884958825548,-1.15324248233303,-1.26272199302818,-1.31485346582003,-1.33458846620114,-1.34336101513513,-1.35414697569638,-1.37036622085177,-1.3878850932299,-1.39850786728529,-1.39330980236986,-1.36474509535466,-1.30733142889397,-1.21746534225499,-1.09316882351241,-0.934214128982156,-0.742498450130023,-0.522288033571766,-0.280162121887902,-0.0247511398663477,0.233688854213684,0.483990753061619,0.715093791394842,0.917100911265477,1.08212974207844,1.20505983984715,1.28447839675701,1.32383642562225,1.33224830944042,1.32397754921612,1.31580726183504,1.32227517656566,1.34992025965261,1.39268179167567,1.43075377629163,1.43421696368466,1.37096273366903,1.21658490302891,0.962935655098078,0.622424942353647,0.226621525859205,-0.180529020298926,-0.553084859138648,-0.854190867792518,-1.06445275659651,-1.18488954626672,-1.23376753047898,-1.23896445803307,-1.22888841838647,-1.22489688593571,-1.23708084010368,-1.26388489648741,-1.29479330256026,-1.31455993991042,-1.30742483310803,-1.26031156738915,-1.16469886116453,-1.01736538434696,-0.820445866890351,-0.58120301495502,-0.311636243322474,-0.0277286955848479,0.25192348204329,0.508120090094657,0.723476108222033,0.884985150469951,0.986524132991032,1.03096477025127,1.03112973165,1.00844762346999,0.988429811811339,0.993304689955906,1.03381963079596,1.10334188530615,1.17714032972914,1.21802232458583,1.18701549887504,1.0556711651318,0.815856709668483,0.483851135491416,0.0975169682150278,-0.292586017861052,-0.635561408233734,-0.892375175588163,-1.0442651925024,-1.09500576925952,-1.0668028379496,-0.991727718133845,-0.901886918686487,-0.821476633456105,-0.762606308068274,-0.725075704233316,-0.69906411091456,-0.669308770214657,-0.61957560121505,-0.536655980711434,-0.413486460573615,-0.251142994218588,-0.0594012247214998,0.144531270694486,0.339321612484362,0.504479318933334,0.625821252857895,0.699723585907656,0.734491096523622,0.747873692124391,0.760964849022263,0.79010309764411,0.839473508992725,0.897332679345237,0.93782230936723,0.928331599156245,0.84010298513871,0.658401133956286,0.388774095013251,0.0574132278490705,-0.294490556197203,-0.620767451334039,-0.88169934325143,-1.05330964697282,-1.13162927108438,-1.13094303960101,-1.07724713662511,-0.999586162121571,-0.9220912534479,-0.858723637018952,-0.811560648588682,-0.772386076505614,-0.726555935790846,-0.657730468915049,-0.552225312505773,-0.402319360056591,-0.208345028920279,0.0206063946084755,0.267690685638128,0.511124731736634,0.728344465755782,0.900650875368274,1.01740953023057,1.078850789665,1.09651540428081,1.09067126218704,1.08475058400253,1.09789617405568,1.13773881133342,1.19604584346351,1.24934467461568,1.26494669799476,1.21063094724461,1.0646974267601,0.823033081799183,0.50118492406382,0.131202323157458,-0.245729862420772,-0.589045358689233,-0.868345005976867,-1.06974868170354,-1.19690719858895,-1.26667102729918,-1.30162226054926,-1.32257119500092,-1.34341327032056,-1.3692551844459,-1.39738261321459,-1.41986806677563,-1.42649227736179,-1.40710223183057,-1.3531682043759,-1.25866970258375,-1.1204964266769,-0.938553876566903,-0.715767006555602,-0.458060789147774,-0.174245323510363,0.124261624399317,0.423847414133907,0.709292671237295,0.964804633499019,1.17584687465485,1.33182133268746,1.42909092615401,1.47329905716282,1.47974264829799,1.47084120862629,1.47051162036548,1.4964264834509,1.55244730849152,1.62431831398696,1.68117947052988,1.68344030473676,1.59486053565171,1.39466126962869,1.08526092396273,0.692944299995667,0.261429874687235,-0.159411127662068,-0.526129873371138,-0.811737934412226,-1.01021020981629,-1.13439980590532,-1.20873753378104,-1.2598838742426,-1.30881468948546,-1.36661634540898,-1.43432744233306,-1.50556949258792,-1.5701155766133,-1.61691297037586,-1.63592688427387,-1.61898084991412,-1.56017946149877,-1.45640837263335,-1.30796347189318,-1.11890410859095,-0.896616176328837,-0.650433504864427,-0.389755996252952,-0.122495380617508,0.145407077639525,0.409176429330596,0.6635691145859,0.901310693182198,1.1125353343306,1.28578506764713,1.41052752547087,1.48055644541875,1.49724497770943,1.47145997349412,1.42297404825999,1.37658149308697,1.35511398539159,1.37107007516681,1.41987723026712,1.47794710286142,1.50725982794798,1.46571825547369,1.32008854329416,1.05716427089593,0.689406301330447,0.253282138966077,-0.199188899576872,-0.613315844334797,-0.945342171931433,-1.17252794401024,-1.29642628046508,-1.33871005085264,-1.33188086155592,-1.30872821962381,-1.29396745192888,-1.29991092963117,-1.32636214672826,-1.36367747655488,-1.39726833869206,-1.41182759410011,-1.39425483470733,-1.33523196736686,-1.22997440198464,-1.07852293736291,-0.885490985698392,-0.659097539548531,-0.409642516785298,-0.147869853320272,0.116299141020267,0.37427703500995,0.618408017027866,0.840932876734594,1.03306180879496,1.18503423345238,1.28773288929522,1.33573288821434,1.33079776718546,1.2841929953751,1.21623193214357,1.15227432200309,1.11563949338442,1.11923678340011,1.15882196952394,1.21103882274016,1.23814132889528,1.19866256792664,1.06058063866012,0.812305798693349,0.467703965681783,0.0636624230394265,-0.348868600096573,-0.717632857791589,-1.00190757409686,-1.18166218461751,-1.26040595155854,-1.26122901185086,-1.21787381349125,-1.16420583433431,-1.12554824702231,-1.11407045934718,-1.12855629319615,-1.15741931575358,-1.18327810771308,-1.18758748313011,-1.15434839577835,-1.0725049392477,-0.937101173846485,-0.749499777812629,-0.51694410158477,-0.25157840375996,0.0310605795854104,0.313933810595037,0.580376602646797,0.815552285276593,1.00742265500596,1.14757776741971,1.23232080351514,1.26402961589072,1.2522573418039,1.21360576138704,1.16937768262909,1.14058736972949,1.14108095157813,1.17091439926118,1.21297454781218,1.23527242752567,1.19921065714055,1.07139256270639,0.83480860933996,0.495503605652478,0.0827035115301759,-0.357398514377661,-0.772355833519912,-1.11583689967982,-1.35824783123486,-1.49240933157467,-1.53256073494897,-1.50743846923749,-1.45036817596792,-1.38995773138256,-1.34396159637439,-1.31715115189779,-1.30260777360021,-1.28519512992643,-1.24595766179872,-1.16652133391058,-1.03295002162698,-0.838742676706191,-0.586666074425542,-0.289004417996424,0.0341384562415784,0.358391376595647,0.659747946437596,0.919091725163857,1.12553214630698,1.27784615113421,1.38368496592576,1.45663259556451,1.51182794920209,1.56141426954807,1.61109480540092,1.65850743745326,1.69343856120965,1.69955934005864,1.6574944502144,1.54922526347376,1.36341893368657,1.10019196255491,0.773152398099369,0.407456327952904,0.0345676861178647,-0.314285400592272,-0.614089172105391,-0.850299936557931,-1.02062083036513,-1.1338523076147,-1.20612535871864,-1.25578941094903,-1.29863194532608,-1.34467205234423,-1.39697376761518,-1.45231767794552,-1.50319480442966,-1.54028897669797,-1.5545534167111,-1.53840799901805,-1.48626540893142,-1.39496496279168,-1.26443769596506,-1.09830959026611,-0.903782242496337,-0.690400696941297,-0.467995003049953,-0.244575761592972,-0.0249574090324374,0.189462576483913,0.399722452430549,0.607364996287891,0.81207068954685,1.0096219419677,1.19110365654697,1.34407861108639,1.45586037808032,1.51807004101011,1.53088617707868,1.50523763858023,1.46164927111404,1.4252850943546,1.41789515438378,1.44884143139327,1.50862545658915,1.56835703975327,1.58669903136869,1.52254276375901,1.348831980883,1.06234433713524,0.686076573567362,0.263782090328737,-0.15135282737357,-0.510465664969896,-0.781157612413504,-0.954251726977761,-1.04304705768198,-1.0757965198279,-1.08484039253233,-1.09675841674397,-1.12667923371664,-1.17759495150107,-1.24351555336312,-1.31421302857025,-1.37927263859758,-1.43009658861697,-1.45991936805054,-1.46298301547828,-1.4341885980968,-1.36983228154944,-1.26905103993748,-1.1350393353427,-0.975231428135306,-0.800216206389854,-0.62171570672585,-0.450236945966373,-0.292990368978616,-0.152527842442026,-0.0264219940808375,0.0918681677363657,0.211122275982207,0.340007398276619,0.48487771095311,0.648058605840286,0.826600320250133,1.0115686067266,1.18838856266869,1.33890187280155,1.44524330168177,1.49479326734195,1.48487912821142,1.42564601336403,1.33954561482554,1.25650443178465,1.20526501006877,1.20318996826736,1.24807452446675,1.31553285369733,1.36403282240324,1.34684573842255,1.22707132566581,0.990234552211137,0.649890709063255,0.244573582321924,-0.172523908425503,-0.547738742472983,-0.840717089572905,-1.03365071713716,-1.13322238730694,-1.16503056179637,-1.16301355724175,-1.15810660420916,-1.17019882359876,-1.20552563292366,-1.25902985033671,-1.31937391883038,-1.37395952660279,-1.41222348286807,-1.42678537633719,-1.41304351354419,-1.36826834953269,-1.29110095888622,-1.1817905119726,-1.0428589822706,-0.879551194575256,-0.699548386802822,-0.511814333001318,-0.324837487494642,-0.144782443891893,0.0258616659313945,0.188635303933114,0.348184018000891,0.510110178499265,0.678090285038726,0.851158726912236,1.02221567671011,1.17855708871083,1.30460262428268,1.38623777339593,1.4155731463442,1.39467544687465,1.33695564876221,1.26527893512582,1.20649421659919,1.18315282601575,1.20462935232393,1.26098948945554,1.32276874463553,1.34787111164252,1.29380801901026,1.13110332124092,0.853218407531848,0.479843478406362,0.0527757709282558,-0.374252470356217,-0.748898542295231,-1.03286195905239,-1.21007837010984,-1.28812175584863,-1.29298250892111,-1.25968987825442,-1.22222566525632,-1.20563488589434,-1.2218204299148,-1.26908843186927,-1.33462113961817,-1.39870524697464,-1.43952539141357,-1.4375539747229,-1.37897920474417,-1.25796488538321,-1.07756260474379,-0.848949367619975,-0.588839709349847,-0.315620091819975,-0.0454973349928113,0.209940286443901,0.444018583619205,0.653370426061363,0.835447070466395,0.986550339272908,1.10162488258845,1.17622007948372,1.20980768224604,1.20871795748292,1.1868803853515,1.16331111165347,1.15650748056947,1.17722468402474,1.22218741249122,1.2716550537801,1.292868562096,1.24916759910747,1.11188174684357,0.870581538263855,0.537949962214979,0.147833648388295,-0.252600711604758,-0.614221127509384,-0.897708069012182,-1.08241315020585,-1.16955784578528,-1.17894264794968,-1.14088407426127,-1.08671456103441,-1.04098057195494,-1.017040103451,-1.01623906152564,-1.02983959036947,-1.04244892339431,-1.03582390011573,-0.992419305563921,-0.898479278894937,-0.746581109391401,-0.537492668210407,-0.281158168854519,0.00354212251372746,0.290838113296778,0.55227471812907,0.7625246359857,0.905300217839022,0.977607162506679,0.991046896664859,0.969544784280148,0.943543821240099,0.941524011953709,0.980725180204972,1.05982723558515,1.15651931339444,1.23185253201601,1.2409436240642,1.14683059411329,0.932678741811894,0.60816801154019,0.208218732781816,-0.21526993396807,-0.606190053106812,-0.917914302491544,-1.12393088311171,-1.22226250478656,-1.23263946231534,-1.18801932901366,-1.12386496182129,-1.06878522869406,-1.038870739455,-1.03626160827081,-1.05113591149766,-1.06575505310207,-1.05924013697326,-1.01209443785209,-0.909931984492772,-0.746215177559746,-0.523898223388156,-0.255770644856804,0.0368056848077494,0.326979506849543,0.587147304571341,0.79459829423681,0.936810026844055,1.01495616170308,1.04437758844236,1.05125975432871,1.06561396366454,1.11192309571475,1.20010484053577,1.32001709726454,1.44204526943458,1.52444098598353,1.52559803404071,1.41729831430433,1.19429173430415,0.876971044980307,0.506565178971553,0.134640309712482,-0.189991914472831,-0.43330213993577,-0.583436637832939,-0.651183374193375,-0.663759956476789,-0.654782047614431,-0.654373123360255,-0.682474273978344,-0.746412429242032,-0.842047193076156,-0.957064358930545,-1.07503948161173,-1.17923955627577,-1.25552310345318,-1.29414374401261,-1.29062660001202,-1.24594304742786,-1.16600265544916,-1.06032461433829,-0.939887721880499,-0.8145574552547,-0.690849501023182,-0.570762488058716,-0.451976242924089,-0.329196059343457,-0.196106358270146,-0.047329069230642,0.120037378200006,0.305375866576517,0.503872773479604,0.706234550739561,0.899165882564638,1.0670745982635,1.1951601537512,1.27345319948619,1.30072602012227,1.28677850382166,1.2517274662265,1.22166680959747,1.22120811159667,1.26467009766162,1.34875329460109,1.4498851473046,1.52841592615749,1.53936989656418,1.44645463997737,1.2342223357238,0.913906456045907,0.52111672239763,0.106547166901955,-0.277206049939199,-0.588797981577524,-0.807365513551678,-0.935070127178105,-0.992577482601423,-1.0098456922214,-1.0161543475146,-1.03286737450593,-1.07054279097098,-1.12994889187693,-1.20527167355493,-1.28755050258183,-1.36696269258601,-1.43363404729639,-1.47766806169411,-1.48948632749004,-1.46113089675754,-1.38828245068492,-1.27206880095529,-1.11967404202398,-0.943234009401735,-0.757186920373603,-0.574838054037243,-0.405213326700236,-0.251197866826177,-0.109472961787773,0.0278761934164346,0.17064349858648,0.327355527367256,0.502370580487087,0.693888621140713,0.893408903413944,1.08685629195625,1.25722482903851,1.3882824910551,1.46865772530223,1.4954780638297,1.47660500551281,1.43039235346006,1.38208216665161,1.35686572260132,1.37114861587373,1.42488255251027,1.49817689224763,1.55443096550076,1.55001073089718,1.44771389107236,1.22931085175425,0.902589118747869,0.500525709649885,0.0730750169970619,-0.32578464519558,-0.651962725274083,-0.881995444891949,-1.01716480696983,-1.07970154649739,-1.10287384135929,-1.11916332491648,-1.15100201830781,-1.2067474201346,-1.28202905662603,-1.36464536645906,-1.44038972635303,-1.49749854439637,-1.5285572872625,-1.53012410986669,-1.50127362657494,-1.44228575994936,-1.35409278799604,-1.23845980712668,-1.09850375753937,-0.939034514424941,-0.766316890791864,-0.587172070348626,-0.407676500268517,-0.231898668767773,-0.0611182621344112,0.106158608195505,0.273308407660582,0.444017514123285,0.620430138462155,0.801484101297606,0.981855986545133,1.15189199926623,1.29886280984738,1.40967730344557,1.47469801648281,1.49166753002834,1.4683039699426,1.42213243090814,1.37672007297651,1.35463601269051,1.36890263133283,1.41592447898582,1.47316320065168,1.50358580906144,1.4662668584497,1.32965031185454,1.08256283375307,0.738994694303708,0.335209452149284,-0.0796389265789259,-0.456449883563229,-0.758832731218782,-0.971483990097407,-1.10143050109987,-1.17197382470777,-1.21232848781602,-1.24755847800265,-1.29245233348741,-1.3504285920337,-1.4162818203394,-1.48054958153222,-1.53338052920009,-1.56661039547509,-1.5739515079943,-1.55023388925065,-1.49092259920169,-1.39258685697926,-1.25412899528888,-1.07801542797402,-0.870711897250159,-0.641872062738522,-0.40237586983242,-0.161900558797577,0.0729381756915386,0.29900380381689,0.515429490417231,0.721408209411535,0.914059135150844,1.08734306489673,1.23255444282147,1.34043691161979,1.40449708490039,1.42452274424664,1.40881509162491,1.37367592537628,1.33950479910615,1.32421036042947,1.33596234065264,1.36803247648741,1.39818381352674,1.39366031830187,1.32066220052875,1.15518987297488,0.891434076939223,0.544909151794093,0.149514533104581,-0.250443915729202,-0.610953887315603,-0.898619806601283,-1.09750647898495,-1.21056530326287,-1.25574614613696,-1.25879066063553,-1.24550989937616,-1.23586984003611,-1.2409403842788,-1.26247932614637,-1.29422857804459,-1.32402764437178,-1.33626563234736,-1.31455641285524,-1.24461022208287,-1.11709650701559,-0.929993234450467,-0.689756734993377,-0.410841024270072,-0.113586904755435,0.179006715877983,0.444871743550873,0.666115163922353,0.831476189055875,0.937857953353788,0.990931607381343,1.00466999838108,0.999408641410242,0.998020713725175,1.02029378654656,1.07650899085475,1.16213984584831,1.25601006435853,1.3237169962846,1.32641082013067,1.23259005187879,1.02877749487544,0.725097638123826,0.353858103515017,-0.0381535139690887,-0.401126419989097,-0.694116630482645,-0.894019757057317,-0.99906461673922,-1.02603124135441,-1.00265581016744,-0.958314322366063,-0.916193748355409,-0.888912638480183,-0.877912716882065,-0.875734809587778,-0.869709497678857,-0.845606212020307,-0.790409856884055,-0.694302198396306,-0.552394134959835,-0.366417891675708,-0.145875766907786,0.0922444399365915,0.325826752025941,0.531948340594591,0.692177072542085,0.797295783420845,0.849958045364622,0.864339488474834,0.862539886309973,0.868161172782616,0.89831067695708,0.956270358972772,1.02768587609708,1.08256787881336,1.08339045453727,0.99689417600542,0.805383623946635,0.513514365222559,0.148535168440069,-0.245723008830222,-0.619234592209289,-0.927768427353474,-1.14314077596191,-1.25857258593489,-1.28754603389076,-1.25706204537361,-1.19820532595876,-1.13735671910596,-1.09042672080959,-1.06097875275483,-1.04176933982306,-1.018412541351,-0.973727620022612,-0.891761344337269,-0.761090278864303,-0.57733060741121,-0.344696387591565,-0.0762541391863277,0.207481202032928,0.481745940326505,0.722273053509296,0.910799013795962,1.03999060085692,1.11613956356468,1.15819151308058,1.19255923849748,1.24456594227715,1.32883356586755,1.44191932581329,1.56044468229694,1.6464273217187,1.65870839382914,1.56651462644059,1.36007362213902,1.05457067220583,0.686537770673538,0.304263930176792,-0.0447341572354558,-0.325500174863233,-0.523137492369321,-0.643784912740755,-0.709226737189326,-0.747713739882822,-0.784738940871772,-0.836921295477614,-0.910319223993489,-1.00244930988861,-1.1059473128673,-1.21170391287456,-1.31036113457232,-1.39249781180229,-1.44866043264129,-1.47017722313376,-1.45082287230514,-1.38861023346697,-1.28676827176158,-1.15333736241581,-0.999409111290859,-0.83650215910245,-0.673825363550922,-0.516244082158895,-0.36353500636545,-0.211059211380198,-0.0516295996886217,0.1217987708695,0.31318340686115,0.521028563078591,0.737394021296927,0.948631911964955,1.13777384814074,1.28828596658223,1.38861741316507,1.43640512291749,1.44077753568085,1.42142393392439,1.40395886813151,1.41226355245787,1.45966858816914,1.54183633915821,1.63450113709063,1.69814386219819,1.68907575970274,1.57336295110232,1.33841630166652,0.998033280057792,0.589479490292962,0.163999696775576,-0.226212105024916,-0.540933629747978,-0.761060631077124,-0.891163724525443,-0.954759132488423,-0.984396094129294,-1.01061258112911,-1.05375329456033,-1.12080983611139,-1.20708249420106,-1.30076404470282,-1.38803139675335,-1.45682013457488,-1.49864249836698,-1.50885382482565,-1.48615930404658,-1.43195405817089,-1.34973410333131,-1.24456787151005,-1.12248037747435,-0.989602600940814,-0.85116261094127,-0.710701274848479,-0.56992309003633,-0.429209151654815,-0.288363737204188,-0.147079436814181,-0.00492819195151461,0.13892779774602,0.285947627428125,0.438038978817514,0.596838968434381,0.762485152918765,0.932164948338146,1.09898432108011,1.25184280547937,1.37690888730187,1.4608648539099,1.49536159822279,1.48130086911684,1.4310558694503,1.36699359914482,1.31578968955668,1.2996688344749,1.32724968137088,1.38749277998558,1.44979820855615,1.47136010012537,1.40997831845196,1.23798833171306,0.952249513151881,0.576658870483416,0.156459759349443,-0.253716907460657,-0.604340119772289,-0.863480112494448,-1.02334993880137,-1.09900743079863,-1.12033864423165,-1.12087905256418,-1.12771119952841,-1.15554497906413,-1.20598675062998,-1.2709665359878,-1.33804657663532,-1.39519116272105,-1.43344132654626,-1.4473145902435,-1.4338954508784,-1.39190691754032,-1.32151911778267,-1.22476558157907,-1.10586615237807,-0.970862704520236,-0.826546091484844,-0.679097105363539,-0.532882680435364,-0.389714778962541,-0.248826809534724,-0.107639576463438,0.0370117532930725,0.18773459203943,0.345839054619486,0.510962698843168,0.680885905168975,0.8514250634097,1.01639719612952,1.1677688793792,1.29623732403534,1.39256856149264,1.44985738852642,1.46634869295675,1.44778785337739,1.40793371531912,1.36617548682191,1.34212121934647,1.34835495683817,1.38382027867367,1.43076324715604,1.45733531848656,1.42591571633828,1.30474478080706,1.07878899690314,0.755883855172382,0.366045216568914,-0.0457320022085987,-0.430930498217484,-0.749784348939144,-0.980551105324496,-1.12281210751836,-1.19406533284487,-1.22153336353846,-1.23269491019173,-1.2478849148221,-1.27687918427708,-1.31956789919657,-1.36932351790198,-1.41697929819195,-1.45369371506878,-1.47209573949437,-1.46622854715324,-1.43126582788782,-1.36369495267407,-1.26207965526456,-1.12804407201107,-0.966875228767347,-0.787154120480288,-0.599190738721345,-0.412659601871663,-0.234300908724814,-0.0665328323659321,0.0925954990439257,0.248159860855087,0.40621685707581,0.571334954691438,0.744405987611609,0.921245455491986,1.09236526367349,1.24419329578231,1.36179765285773,1.43274093253319,1.45117357086516,1.42095195874234,1.35657688735005,1.28106004159832,1.22047144994843,1.19600240443839,1.21570362396488,1.2689626259274,1.3265277153305,1.34720710052908,1.28975654886499,1.12608870973585,0.851106773844164,0.485697300713703,0.071965328233215,-0.337643629319307,-0.693937180746665,-0.963149265768743,-1.13397028589063,-1.21742474466615,-1.24021317618256,-1.23453506660768,-1.22834715669396,-1.23910459227906,-1.2720348518271,-1.32212688756105,-1.37804908233923,-1.42617623563436,-1.45350375556822,-1.44913971007723,-1.40488394408918,-1.31565766023973,-1.18013909622968,-1.00135651936962,-0.78672025683941,-0.5471376083402,-0.29523855089797,-0.0431601550426668,0.199361421439112,0.425853378097096,0.632589083034351,0.816995373397976,0.975855320662273,1.10437961134766,1.19690178645452,1.24920855578693,1.2616732959996,1.24177639956849,1.20448659435164,1.16944788888473,1.15501116126358,1.1706809485675,1.21089057419066,1.25328070372417,1.26328613400898,1.2042041253648,1.0493442069367,0.791832049439966,0.448653850293724,0.0577097854386709,-0.331232919164988,-0.669168921716216,-0.920335945843194,-1.0704709578521,-1.12807932893938,-1.11875637436088,-1.07535355992873,-1.02791054006628,-0.996502076178221,-0.988384494405197,-0.999130901351945,-1.01636379132243,-1.02432794364869,-1.00783336019001,-0.954846275522641,-0.857814847031736,-0.714249051965082,-0.527002116398797,-0.304358135828114,-0.0597310609249062,0.189326328977018,0.423029523033516,0.622205448818611,0.771777857775096,0.864226811002997,0.902062524174348,0.898311547110114,0.874284922442757,0.854475016785886,0.859311290010491,0.897591289185832,0.961258672913845,1.02512630756711,1.05270593929529,1.00691196497655,0.862218764086115,0.614011283572108,0.281780002179423,-0.0949766411885918,-0.466737462122159,-0.786547135210701,-1.02127569170867,-1.15825007982929,-1.20560918619908,-1.186888099673,-1.1322013138636,-1.06920022110406,-1.01650879951922,-0.981015968725265,-0.958881884268285,-0.938948896699302,-0.906817484034134,-0.848269719574814,-0.751660172323136,-0.609658125114949,-0.420788255020529,-0.190671199753548,0.0676820272980678,0.335197681076889,0.589884267034048,0.81133194745069,0.985516462236865,1.1084904577155,1.18758319378753,1.23926661109506,1.28376514104519,1.33759645424552,1.40630593582079,1.48025400138458,1.53579138638141,1.54221723889614,1.47225212113509,1.31193373664761,1.06609945699824,0.757711160876518,0.421734102872062,0.0958600382089043,-0.189062452587361,-0.416053531787236,-0.584284648950826,-0.706001677215418,-0.799685522679023,-0.882628301973771,-0.96592533449647,-1.05316283586073,-1.14213184800603,-1.22782821983454,-1.30501301974216,-1.36935561119312,-1.41718489605098,-1.44463799290422,-1.44718852466818,-1.42018464733531,-1.36036159770329,-1.26757987295263,-1.14568397941762,-1.00176229900528,-0.844029502336641,-0.679317433843708,-0.511261416680987,-0.339852660405439,-0.162437385240142,0.0243216522695188,0.222339785837606,0.430568763555978,0.644278508411906,0.855072540830605,1.0515568548016,1.22076019634094,1.35042072456041,1.43199653139186,1.46381718782886,1.45334662023834,1.41732419393349,1.37885506176465,1.36141567756312,1.38099317737478,1.43873426027624,1.51704798540289,1.58161801811578,1.58993445789322,1.50415478821001,1.30378239889352,0.993414520537525,0.602872573629183,0.179935819000141,-0.221892476723859,-0.556983814670843,-0.798526423010939,-0.94336558111989,-1.00932871076573,-1.02658546559127,-1.02689043169699,-1.03483935979946,-1.06360909839234,-1.11530393900242,-1.18429047037214,-1.26131094493379,-1.33658739459079,-1.40115560504202,-1.44680399918117,-1.4657176824764,-1.4508843667414,-1.39756387184715,-1.30517955550457,-1.17852318614694,-1.0274534937669,-0.864986676860345,-0.704294256333088,-0.555456494183922,-0.422975416487015,-0.304945039463277,-0.194179463811519,-0.0807384586811168,0.0451656802845737,0.190669033000238,0.358498692122101,0.546096837390209,0.745756299577142,0.945742699634851,1.13207475507978,1.29052807223936,1.40870516660616,1.47833293252311,1.49778466459652,1.47417880094885,1.42385269291034,1.37003324557761,1.33722622506348,1.34316130379186,1.39073562246618,1.46340009097618,1.52684015388944,1.53751555686295,1.45568636209134,1.25847170259094,0.948322006476305,0.554016750490433,0.12390783201804,-0.286518348497758,-0.629077288136052,-0.874906726997764,-1.02018713387396,-1.08380406270058,-1.09833081789593,-1.09828877704205,-1.11020580989782,-1.14739296215236,-1.20984157718777,-1.28773969559123,-1.36647920888354,-1.43134439153587,-1.47076537651518,-1.47780334006017,-1.45023206986862,-1.38989105767891,-1.30177912803049,-1.1929697662023,-1.07129162905482,-0.943861335003638,-0.815738042703071,-0.689053731401869,-0.562931910175579,-0.434306121819144,-0.299425193980012,-0.155515343825462,-0.001912250521335,0.159846240485862,0.326912187250689,0.496321140585735,0.665615682348683,0.832437755161761,0.99332388250482,1.14248645797406,1.2715078676663,1.37057082424524,1.43123065941112,1.45002497199011,1.43163547522456,1.39006189702542,1.34651441788453,1.32361621993559,1.33700516821486,1.38710773971648,1.45481255606486,1.50401140675131,1.49132170720417,1.37993695128854,1.15244211729649,0.81784453211829,0.410532120447337,-0.0182499907287055,-0.413721981024763,-0.73180110227235,-0.949896041467801,-1.0706898046966,-1.11777587466158,-1.12531769450834,-1.12620431814752,-1.14311855031406,-1.18487234460599,-1.24785765729635,-1.32077687267324,-1.39022164478089,-1.44495968472537,-1.47778157127734,-1.48506309325334,-1.46515046722403,-1.41686059551586,-1.3389342415601,-1.23057120128268,-1.09255767171741,-0.928222857378448,-0.743631249543221,-0.546863621975917,-0.346644798271844,-0.150746943817853,0.0354170006156424,0.209667562944024,0.373140735188046,0.52942191103968,0.682765001100438,0.835773892474405,0.987297816371948,1.13140135983818,1.2580180765883,1.35544803977056,1.41428634205262,1.43166531938545,1.41413973540876,1.37760616431741,1.34347213403944,1.33160510671648,1.35200990475984,1.39827821966667,1.44599134864854,1.45785328559518,1.39460912317876,1.22809227306637,0.951619397327898,0.583977978374345,0.165668812940965,-0.251355367254805,-0.61726866658029,-0.897082237342687,-1.07849192071573,-1.17243924280351,-1.20659539350395,-1.21463542194794,-1.22553085718945,-1.25646951923938,-1.31093681627998,-1.38124123905615,-1.45337779100425,-1.51193481278069,-1.54353496886664,-1.53845642325774,-1.49092059617614,-1.39876702257172,-1.26305764080348,-1.08783349633075,-0.87990352054955,-0.648303306740901,-0.403128415849131,-0.153883891748001,0.0919855532956393,0.329578071560986,0.555667028078264,0.766886806672535,0.957986223329482,1.12126346162194,1.24781456415242,1.33040259620277,1.36697863687682,1.36343501724117,1.33413879979401,1.29924115157288,1.27876457936277,1.28492473901194,1.31548815224367,1.35131417969006,1.3600139939041,1.30522167892992,1.15845331163218,0.909237224480586,0.569852283225029,0.173193700283364,-0.235269912711893,-0.608795250920885,-0.910518673797234,-1.12118935043713,-1.24133204235711,-1.28769101545545,-1.28585940082917,-1.26208258019076,-1.2369043085962,-1.22198372124871,-1.21989265681899,-1.22575611862987,-1.22949974864843,-1.2179848208796,-1.1769684676495,-1.0932023415349,-0.956878290989911,-0.764158598816865,-0.519073005722953,-0.23400752082516,0.0715830474593418,0.374014785060103,0.649121319847746,0.876173245826262,1.04137267169023,1.1404572196946,1.17995258645812,1.17657574479474,1.15437906297696,1.13954279943299,1.15333586445404,1.2046855324341,1.28475948652249,1.36628266428207,1.40924228950734,1.37213228082724,1.2251142710478,0.960253148753758,0.595229081509702,0.169647303569571,-0.264537082142469,-0.655643306898486,-0.964479246541425,-1.17262942064177,-1.28432415970358,-1.32163153247681,-1.31522979359481,-1.29447842745058,-1.28018957806647,-1.28172768903341,-1.29794382610695,-1.32017187553656,-1.33553870034458,-1.32966546683667,-1.28865933015486,-1.20072379340985,-1.0577578099243,-0.857073941201083,-0.602959256031584,-0.307454076276968,0.0102807871762407,0.326242623926917,0.615236821365568,0.85528236828931,1.03196811791679,1.14188442733957,1.19425424589449,1.20989134170012,1.2168572583927,1.24295788668471,1.30653112670347,1.40837934049637,1.52826764217795,1.62834490301243,1.66332213329977,1.59439993603322,1.40213288949509,1.0937346429004,0.702519407718502,0.279838009086293,-0.117945364242152,-0.443631077696883,-0.670391966145737,-0.796527493387635,-0.842417697399545,-0.84132071443869,-0.827799810879894,-0.827952600323691,-0.85432663994119,-0.905970032404656,-0.972015725499221,-1.03666543527863,-1.08359722224507,-1.09891427809589,-1.07304124067119,-1.00170558729819,-0.886138343750003,-0.732792828155568,-0.552156812288759,-0.356572515142704,-0.158338730197159,0.031263195646986,0.203132523804437,0.351258444296317,0.472358448971484,0.566123592942596,0.633917803230386,0.673302200233005,0.681134343934964,0.662297336147222,0.631853141309614,0.624651723717038,0.679237085087493,0.802033794900569,0.96286890028347,1.04318616819165,0.879470773005411,0.541597720076653,0.30152902742323,0.174400020801098,-0.0746036828009198,-0.424626947905973,-0.60843626848709,-0.571124554790928,-0.4850379313027,-0.464900903565299,-0.529780299928565,-0.660358427900135,-0.807227782796373,-0.929174325354937,-1.00965487551932,-1.04666547738192,-1.04942884876723,-1.02775958090849,-0.986680112690319,-0.929443641331782,-0.856939811886006,-0.766957837622738,-0.655566198294762,-0.518354059008837,-0.352106412268125,-0.156905952746075,0.0629614384411284,0.299209749451385,0.539988730926253,0.770707173782091,0.975576484905774,1.1396748424291,1.25172013012706,1.30748880946711,1.31262146502217,1.28350875775167,1.24508658497052,1.22491236871792,1.24454651828648,1.31069602761133,1.40943626137297,1.5066781387253,1.55609797833654,1.51262762512846,1.34703335774237,1.05640744251199,0.666905711549926,0.227935564151124,-0.200410406405536,-0.563056125670681,-0.824033421471097,-0.97441732122429,-1.0315114141072,-1.03004533622895,-1.00932722341676,-1.00136778523657,-1.02366640184763,-1.0778751897442,-1.1533422997708,-1.23329325025366,-1.30116010452767,-1.34505300685129,-1.35940361713493,-1.34410568388851,-1.30238059230323,-1.23868519684401,-1.15739237306735,-1.06223357394259,-0.956159266843713,-0.841379297082743,-0.719513026626113,-0.591821392847897,-0.459490759610816,-0.323901239902037,-0.186718132028603,-0.0496420676276639,0.0861534522179183,0.220632583356498,0.355232747483665,0.492677514652725,0.636070933601084,0.787238545195036,0.944722644499197,1.10228201954338,1.24874836579055,1.36968597536096,1.45082645263394,1.48274502776775,1.46552807091926,1.4114503579811,1.34364125828721,1.28989945756774,1.2729108217477,1.30015653021474,1.35772468605307,1.41137633437134,1.41558136513754,1.32785209550159,1.1232714170423,0.803937077205404,0.400066181843898,-0.0375019727008912,-0.450978777868249,-0.791240174880644,-1.03041902335054,-1.1672777848588,-1.22370002090345,-1.23419810816306,-1.23310225365419,-1.24447863652404,-1.27780434574636,-1.32949071802634,-1.38813272418119,-1.44057558736799,-1.4763579351566,-1.48932761008085,-1.47670650366598,-1.43702744275143,-1.36863716800978,-1.26972441306103,-1.13965420396686,-0.980601682447634,-0.798421349949715,-0.60212705454897,-0.402003782147466,-0.207022613943616,-0.0225818794689136,0.150565532241851,0.315849945434487,0.479051782751522,0.645612477147061,0.817813529470754,0.992641296509213,1.16109714382987,1.30942839263401,1.42223123706626,1.48676443877134,1.49735466871306,1.45859983550419,1.38614442317481,1.30409884509733,1.23890057748419,1.21072911749567,1.22509088053335,1.26794123597809,1.30699631265064,1.29981003245017,1.20651768417538,1.00298805748754,0.689639412144362,0.29280556646854,-0.141612102945286,-0.559950449529395,-0.914401599167802,-1.17440460865811,-1.33234934097408,-1.40199654815117,-1.41084365342383,-1.38997817782056,-1.3653363527126,-1.35275201128702,-1.35706474846288,-1.37412231275546,-1.39408150101763,-1.40463761731224,-1.39335702700195,-1.34900022842939,-1.26235840831714,-1.12727278947282,-0.942002890572427,-0.710396304820546,-0.442077275413397,-0.151316929756534,0.145078969896842,0.430153085236227,0.688776967080119,0.908863942829868,1.08188567070481,1.20314483625296,1.27232890714365,1.29450040205007,1.28100456118177,1.24917478689406,1.21967678702391,1.21116084314759,1.23337037295844,1.28123033426347,1.33286056722099,1.35346488691822,1.30480059811959,1.15733448320797,0.90067722162219,0.548477430602549,0.136222769432738,-0.287134233905035,-0.671142745203903,-0.975975314189398,-1.18112949421599,-1.28807125477775,-1.31631584977269,-1.29494805454551,-1.25311107307729,-1.21275912399396,-1.1853491691888,-1.17224751254242,-1.1673752080306,-1.16031233613876,-1.13861529116433,-1.08915867789792,-0.999260700356301,-0.858483051620647,-0.661268908525796,-0.409705913315635,-0.11529772773301,0.201255189018042,0.512767737631968,0.790478982338404,1.01004293533696,1.15708141259516,1.23088434088255,1.24518109756948,1.2253436509786,1.20208859259932,1.20277038052913,1.24240273605441,1.31718284536586,1.40313387384108,1.46123715062242,1.44822269316099,1.32983006185303,1.09202652115383,0.746237640549823,0.326984918234834,-0.116814619325684,-0.533771263904127,-0.881688344510287,-1.13601195762189,-1.29302390193981,-1.36722090212901,-1.38427906966868,-1.37248320365668,-1.3555502464534,-1.34848265139237,-1.35647025199752,-1.37588255735056,-1.39628040969898,-1.40277495988359,-1.37855063055754,-1.30765347908054,-1.17805825877486,-0.984640623098602,-0.731332733634004,-0.431717415177426,-0.107611955196685,0.214326963141092,0.50738308393628,0.749893573276265,0.929537373563681,1.04590056113329,1.11079163773452,1.14604888762711,1.17878182914646,1.23436499021056,1.32830628702136,1.45921833831756,1.60582082029687,1.73031235992267,1.78827704784321,1.74232092641223,1.57453783824237,1.29315211557701,0.931195583482304,0.538143462817158,0.167401208568046,-0.136787540172788,-0.349429307912533,-0.468943942458957,-0.514306304456264,-0.516686355103409,-0.509079568206262,-0.517606102538827,-0.556743854828435,-0.62884078008488,-0.726775888892717,-0.837960946289918,-0.94801724968295,-1.04328364020902,-1.11232320502073,-1.14708966905916,-1.14410734718408,-1.10535074470907,-1.03815971148283,-0.953779187448075,-0.864735495444323,-0.781821087303104,-0.711660379150212,-0.655606216878552,-0.610196693867634,-0.568850202858298,-0.524135764249563,-0.469869809607361,-0.402391356925119,-0.320672465845875,-0.225427978071903,-0.117849189030682,0.0013327979128248,0.132070155607929,0.274526125328735,0.428113088177422,0.590260936942328,0.755238570502769,0.91359503782156,1.05286392272877,1.15983287378601,1.22406741299104,1.24179841885852,1.2189017135014,1.1716180383124,1.12397858609918,1.10165974967148,1.12323955782796,1.19141160474698,1.28783100113527,1.37479767077435,1.40459412851617,1.33398392599609,1.138841313588,0.823495844724201,0.421374231806495,-0.0132038754810604,-0.419289541228517,-0.745170592152181,-0.961034141393193,-1.06457626547447,-1.07802293722613,-1.03813949097282,-0.983379769580423,-0.943039231654253,-0.931781781585687,-0.950135961855013,-0.989077049284795,-1.03575078852226,-1.07786276100588,-1.10565658931634,-1.11192001523755,-1.09134790808834,-1.04048320754464,-0.958588641740808,-0.848861600687911,-0.719012923474308,-0.580516327466129,-0.44648060227893,-0.328718525465301,-0.234959632171097,-0.167164609182213,-0.121533220189285,-0.0901879817433427,-0.0638821979641597,-0.0346681148172367,0.0024946747439802,0.0496541501220685,0.106989285972022,0.174299487176382,0.25202616272025,0.341391998798231,0.443669307421885,0.558783277958545,0.68360639589153,0.810624415117839,0.927902517418748,1.02100252893687,1.07670018315735,1.08750373164613,1.05549582476702,0.993995641431705,0.925918671114749,0.878479348345442,0.874997264610995,0.92586504110103,1.02180417637052,1.13267032675897,1.2136368943136,1.21773791659653,1.11075366874101,0.883013373249207,0.553801757493297,0.166986957397183,-0.22049217833772,-0.553712665277049,-0.794024524117554,-0.928138772142771,-0.969078656293983,-0.948893990412624,-0.906304286064633,-0.87426456122803,-0.871845657699908,-0.902379297395775,-0.957039387537905,-1.02121245168093,-1.08065249385499,-1.12528643280676,-1.15001576144876,-1.15326541979991,-1.13482036685647,-1.09440393322213,-1.03164548689292,-0.947103054437503,-0.843435394707336,-0.72587833077032,-0.601669968941187,-0.478622986734797,-0.363379879348006,-0.259920796182808,-0.168724514793054,-0.0867807243477407,-0.00845958603299413,0.07302181249832,0.16406351298409,0.26956601313188,0.392293375693466,0.532384202070042,0.686759863142531,0.848603484743446,1.00735747044631,1.14959211405428,1.2608610480591,1.32851518343282,1.34523986392275,1.31253836246345,1.24271785703061,1.15779992362991,1.08458135787465,1.04656155464548,1.05500528946194,1.10240140193494,1.16147039742767,1.19131249626556,1.14950767331917,1.00616191578741,0.754693261856171,0.415383221371324,0.0305692868568798,-0.346793010896434,-0.667580092990837,-0.899503624476637,-1.03450148608968,-1.08809745375667,-1.09126472632293,-1.07825677831834,-1.07527849437836,-1.0940484839328,-1.13176247937392,-1.17612284858201,-1.21236996685988,-1.22919494063021,-1.22162141984968,-1.19059253926609,-1.1403463813582,-1.07527484806455,-0.997787682169124,-0.907983919122444,-0.804997933331428,-0.689092184874112,-0.563255347285241,-0.433372362117993,-0.306770730136771,-0.18973568624621,-0.0850809627287652,0.00915185618263321,0.0993142093613445,0.194271488650724,0.302708546245323,0.430387731298827,0.577967794260437,0.739855964485777,0.904482185105911,1.05615920358564,1.17824001241018,1.25686262378884,1.28449382534199,1.262631455146,1.20300355572189,1.12642245017325,1.05864029904724,1.0234556693424,1.03463624596584,1.08929239233373,1.16555710375761,1.22641784171374,1.22938938842042,1.13923121832857,0.939371319044696,0.63799807821066,0.266773009777017,-0.127267846667408,-0.493959214503892,-0.792654536680584,-1.00148292238249,-1.12048302791409,-1.16805063877825,-1.17265871448058,-1.16335149768934,-1.16229472282691,-1.18110965421452,-1.22093564386842,-1.27499873434127,-1.33210118098904,-1.37969780726989,-1.40589379364684,-1.40052622661976,-1.35598240633374,-1.26818528690514,-1.13751262352292,-0.969006547601447,-0.771427769184931,-0.555278811151283,-0.330452876928294,-0.104389401315301,0.118584434589804,0.336578711088335,0.548514958184046,0.752199907031956,0.942800128800329,1.11236607158556,1.25083558622348,1.34850576216247,1.39941903797276,1.40463427506696,1.37408312047659,1.32581729360831,1.28205512942813,1.26247730169378,1.27649531301043,1.31731681460477,1.36081868165852,1.3708238646156,1.30964338375802,1.15021166435197,0.885423668366387,0.531611148351444,0.125305277805988,-0.285644682113991,-0.654109996398277,-0.945352274066958,-1.14459555487317,-1.25808581258867,-1.30778921653996,-1.32232588169124,-1.32775251462586,-1.34116203602585,-1.36844844576392,-1.40586315223347,-1.4437714461145,-1.47061373173182,-1.47556250338982,-1.4494999092133,-1.38505976452829,-1.27681475903281,-1.12206384816251,-0.921785093763162,-0.68107468870612,-0.408909552481155,-0.117593443126028,0.177848647466616,0.460542322286474,0.713340730296807,0.921276373991717,1.07456174953543,1.17142723539827,1.21990387099303,1.23760871070484,1.248730150413,1.27801612822209,1.34276957859149,1.44525461971188,1.56867982553248,1.67928727680039,1.73493541039127,1.69777716675483,1.5466490179593,1.28471719110584,0.939770557320594,0.557228722236844,0.188222247002507,-0.123562971004589,-0.35229004762062,-0.494526842156567,-0.566912499114812,-0.598420010183459,-0.62051808277692,-0.658761461743747,-0.728002586630814,-0.83148375070962,-0.962705258046149,-1.10861494494812,-1.25296167302931,-1.37914710084445,-1.47243142689036,-1.52171954064563,-1.52108772806563,-1.47078211744289,-1.37714273294834,-1.2511260164539,-1.10565001402389,-0.952485654502282,-0.799630474882503,-0.649972432917509,-0.501603397203241,-0.349524120848097,-0.188012695070829,-0.0128818989943122,0.176827989448503,0.377794333317682,0.581962946307038,0.776947065631429,0.947786420966387,1.08033493627869,1.16573143321494,1.20448423155329,1.20834291294422,1.19860991140082,1.20057491989597,1.23505354718719,1.30946806071901,1.41197188179747,1.51183628444153,1.56725133461147,1.53839021253012,1.40087336843091,1.15450339914574,0.824230870748343,0.453388511148093,0.0917761528519304,-0.217621016271871,-0.449321232395106,-0.600054436425581,-0.685992211467159,-0.734169683471063,-0.771992545659553,-0.818694229320272,-0.881740754742065,-0.958680101210119,-1.040992939607,-1.11827940175049,-1.18212440791712,-1.22643780776587,-1.24888071771905,-1.25211656161487,-1.23970993543108,-1.21899131977017,-1.19189765999988,-1.12625746089319,-0.982441009805895,-0.778141628878509,-0.561971890002996,-0.337154668761231,-0.0844560736686756,0.171156886876311,0.38188733667139,0.528441264136144,0.617665690175017,0.666670070659071,0.697862207454872,0.731770494819325,0.784749547275413,0.869119559230801,0.989855116299442,1.14133993168944,1.30470795510081,1.44839047128767,1.53478891672824,1.53077319379969,1.41805298124997,1.19972852592591,0.900402069670629,0.559936073969551,0.223251376341336,-0.0708050048757833,-0.298499353533843,-0.455449215783276,-0.554674722229674,-0.619405692496534,-0.673694138299419,-0.734560412617199,-0.80822131265081,-0.890669507738999,-0.971116014677775,-1.03621263937426,-1.07334966774839,-1.0724114590194,-1.0265027803164,-0.932613973143212,-0.792744713591221,-0.615076621843083,-0.414164436413462,-0.209258853795,-0.0205524423369293,0.136028899835251,0.253989657432233,0.339273983840566,0.40925854015613,0.487170739674471,0.593233465742715,0.735422935806094,0.903398260646498,1.06850742444972,1.19069583255647,1.23033249761477,1.16080885374436,0.977416169699408,0.699575155762528,0.366014824328374,0.0247381980156361,-0.279064944542034,-0.513573265317079,-0.666256278176046,-0.743638952780908,-0.765726681609086,-0.757875961343688,-0.743321899359727,-0.738392949268566,-0.750732441572037,-0.779723440755175,-0.818059976293008,-0.853679437067042,-0.871734164082812,-0.856749204349162,-0.795328466662966,-0.67946268284956,-0.509757909345778,-0.297295404762155,-0.0628864282040268,0.166747857335618,0.365215442918546,0.51342424931806,0.605097731059563,0.648957070566304,0.666651289291174,0.686658308976255,0.735427007643194,0.82798879088031,0.960984386538301,1.11100493502539,1.23980309045637,1.30536884567308,1.27518785369506,1.13686236552924,0.902481471185688,0.605751090332001,0.293241212337518,0.0124129796632432,-0.200284996465427,-0.327799002121713,-0.3747150041592,-0.362894840414602,-0.322623846140113,-0.282930187842566,-0.264436786075452,-0.276432380418988,-0.317898866259003,-0.380894802539406,-0.454341557252961,-0.526831017098681,-0.588139318783182,-0.62999751511441,-0.646817326380244,-0.636581509431505,-0.601541161284467,-0.548176052603543,-0.486105853684452,-0.42606385285321,-0.377435179648034,-0.346087270524094,-0.333203661177236,-0.335517167055433,-0.346799479879027,-0.359996297006831,-0.369273067725732,-0.371396400456909,-0.366102388396148,-0.355375750022847,-0.341930848876929,-0.327470226630802,-0.311296199427792,-0.28966582740647,-0.256122044039911,-0.202875654830769,-0.122996521811502,-0.0127771887113831,0.126515846337039,0.288016551423336,0.459821060406281,0.626541206257034,0.771648655245123,0.880406664782864,0.943044619892532,0.957642207428782,0.932034509309482,0.883898540725772,0.838155370636655,0.821278077309493,0.853230875800323,0.939209864597766,1.06432718000717,1.19414988287987,1.28226575320998,1.28324086418262,1.16677457716586,0.928055113844818,0.590738954697525,0.201650579341203,-0.18114550147095,-0.503444113123332,-0.728707179189927,-0.846216152564258,-0.870937099739526,-0.835581988051504,-0.778406734150264,-0.731596878491714,-0.714072644313187,-0.730083472623029,-0.772540799851509,-0.828647775086417,-0.885234699131463,-0.932062698991772,-0.962727479280019,-0.973968521615208,-0.96457835334662,-0.934714009530663,-0.885766063074976,-0.820523630297953,-0.743263026773489,-0.659442241531453,-0.574866157081952,-0.494514664316058,-0.421519242151165,-0.356745176058977,-0.299061536378957,-0.24598904409191,-0.194333037608336,-0.14061409902039,-0.0813230208874858,-0.0130786008889231,0.067260644701526,0.162458821721353,0.274594089562434,0.404390876363972,0.550131667195537,0.706465173172816,0.863803940903698,1.00896086737041,1.12722950195955,1.20567558609782,1.23706524588647,1.22338011074541,1.17743351806252,1.12124973051493,1.08076454493283,1.07771153109622,1.12090123407921,1.200082060455,1.28549854498681,1.33455888733412,1.30409035042775,1.16402428960377,0.907617516139139,0.554811061610476,0.147896137051684,-0.259065134533361,-0.614043059256173,-0.880048876199353,-1.04327074959767,-1.11377985710674,-1.11908802425178,-1.09358079938472,-1.0680288123219,-1.0625641657906,-1.08443170368118,-1.12977175741679,-1.1876238972179,-1.24435154622283,-1.28725220587582,-1.30677225482082,-1.29732568144778,-1.25713376337159,-1.18761975712243,-1.09268769193076,-0.977914053053945,-0.849585428402677,-0.713678869419426,-0.575064607849805,-0.437161896589342,-0.302010228834643,-0.170493609928892,-0.042490830064389,0.0830751810594997,0.20819234596674,0.335607004772727,0.46841440216811,0.609207514816065,0.758738644782166,0.914385057662869,1.06904983301538,1.21124129859847,1.32682161684648,1.40231704416484,1.42899710410153,1.40652013189649,1.34492110761139,1.263920381058,1.18892551298175,1.14391809649772,1.1427536628387,1.18180004300639,1.23735988469795,1.27012396095881,1.23609191344266,1.10038105483896,0.848948382521339,0.494220067991936,0.0730526687012085,-0.362151308214602,-0.756649955013113,-1.06718961531339,-1.27222870186741,-1.37521621008046,-1.40012069546182,-1.38147803655169,-1.35310584968148,-1.33942251675955,-1.3514810605831,-1.38760943534495,-1.43701800487668,-1.48432843231559,-1.51350065859312,-1.51055232402475,-1.46522927288167,-1.3720552386548,-1.23095914519708,-1.04728235174586,-0.830833588774242,-0.593941106856542,-0.34890679703534,-0.105558087341064,0.130362390566662,0.357354757526526,0.576615411246618,0.789213386357709,0.993111496971943,1.18136199086273,1.34241514683193,1.46278204756969,1.53150056313807,1.54503837160533,1.51071192405789,1.44683880311012,1.37879152499664,1.3315517115005,1.32079801249586,1.34556708086457,1.38561688576997,1.40536527668027,1.36383472857116,1.22745935273141,0.981296133378403,0.634828768098627,0.220642074554493,-0.213420672227121,-0.616245487768539,-0.946112571719887,-1.18019978413461,-1.31794498929897,-1.37757326520334,-1.38782441851319,-1.37847788825357,-1.37289168424894,-1.3841041475315,-1.41435791965772,-1.45699016430414,-1.49950782730327,-1.52691873264929,-1.52468312369783,-1.48094309428449,-1.38800138630339,-1.24320131934508,-1.04926335654807,-0.813919810860212,-0.548670763515054,-0.266805558101364,0.0186804676480881,0.296418444205953,0.556752262377327,0.790906185932392,0.990274022617704,1.14689894289333,1.25548961271853,1.31632168592107,1.33765127391605,1.33605347154338,1.33350903673637,1.35112970555067,1.40095196709293,1.47877879063647,1.56166750783435,1.61242927268599,1.590543786077,1.4657055933757,1.22878663505744,0.896208767876771,0.506531748057488,0.110627334197545,-0.241548151214471,-0.513670365938786,-0.69135622598632,-0.783400277052916,-0.815803747192031,-0.821330808277128,-0.828824846710829,-0.85600557607707,-0.907436322965266,-0.976944219394224,-1.05229045018517,-1.11980460975104,-1.16749839255299,-1.18637748798346,-1.17073876304883,-1.11814935704769,-1.02939516445395,-0.90849360501432,-0.762236515884337,-0.599088024510821,-0.427944770454753,-0.256894740031194,-0.0921314136642632,0.062154874226696,0.202792965036127,0.326922207800018,0.431705111572967,0.514018475819706,0.571799034127113,0.604798041841112,0.611456210120859,0.59159326192808,0.552544018894308,0.509354355594815,0.49188302408558,0.532208283574577,0.636451637916369,0.782050586760675,0.873593664211259,0.773936663206831,0.532681555633172,0.367524208797614,0.291140942871484,0.112785059915416,-0.1489373525894,-0.270803926895912,-0.200586493169258,-0.0725337829296527,0.0226122482739689,0.0659780179370819,0.0633657033613158,0.0411494230396439,0.0183897610329666,-0.00211903243948114,-0.0234178024100698,-0.0557611869524139,-0.106335056329968,-0.169471137607274,-0.229986566730197,-0.25536964122237,-0.210381983684755,-0.0904304846772093,0.0753426608638137,0.17609572950699,0.0598315738766151,-0.206746996811612,-0.370431496854076,-0.422055337446763,-0.585498841436171,-0.841515157983734,-0.940056082086762,-0.831773771575777,-0.678436170733552,-0.584386870041532,-0.563466462294097,-0.594935062744942,-0.631807434639027,-0.636275699142139,-0.594005169499462,-0.503761468810848,-0.374171627148111,-0.214325170109699,-0.030116111108925,0.17107013461257,0.379411073339033,0.583009855376438,0.768046101879453,0.920844769406847,1.03082098867027,1.0934321195647,1.11320149371671,1.10495783025774,1.09119935905549,1.0956676883126,1.13487770214846,1.21008533116449,1.30308795511088,1.37856086150207,1.39293685164545,1.30746971220727,1.10112016431217,0.77851560566857,0.370350316330716,-0.07372097104433,-0.497439907475807,-0.851848390518896,-1.10665613437758,-1.2557073922547,-1.31501735049067,-1.31462792902557,-1.28791694821784,-1.26237294380225,-1.25437259595683,-1.26826060892299,-1.29836888142746,-1.33236648104097,-1.35480709622327,-1.35023157499146,-1.30557420656068,-1.21182890206679,-1.06506634681702,-0.867003393406193,-0.625209891580091,-0.352743653247809,-0.0669990598197774,0.212212178357157,0.465073301203095,0.67419667072417,0.826920699914725,0.91758981536088,0.949568370798857,0.936239113968099,0.899898478769817,0.867692833394641,0.864791103219713,0.90629742443885,0.990426027318056,1.09599595003163,1.18649408688827,1.22031486844842,1.16419926669085,1.00503289686157,0.75523222437908,0.450301425852183,0.139788697072947,-0.125779095811649,-0.307688979694563,-0.387536435648019,-0.369973165790985,-0.279632339093678,-0.152376295129718,-0.0247929273710267,0.0732772517461007,0.12414887775398,0.122355674473354,0.0657744451697499,-0.0428892303901185,-0.186521369781374,-0.332363124351737,-0.418751387562702,-0.377798033223308,-0.188275293596717,0.113954839583347,0.356606347083854,0.287091005351473,-0.0233252501761867,-0.202333329360494,-0.226467956982806,-0.431275226425308,-0.795176610965976,-0.934058003809694,-0.751538395729791,-0.478559918268211,-0.278338793945181,-0.189314764146707,-0.200614358112045,-0.258291774952171,-0.317259594862277,-0.361531912356264,-0.39142199333493,-0.433475218522688,-0.516363272345447,-0.637487807087876,-0.760081112803233,-0.782781452764055,-0.58373018111924,-0.129096377053471,0.506161596109853,0.976881463301085,0.783292768615782,0.0966005960440171,-0.294181976713153,-0.322214678623365,-0.670894283644165,-1.30480321026993,-1.44963095404191,-0.92280803577278,-0.219713329086551,0.301213904608907,0.550567326689317,0.558182938233951,0.455337143196923,0.364053631067113,0.343064498491608,0.409395293815043,0.541652478248923,0.707215347887622,0.878249225158157,1.02642506493696,1.13007126719434,1.18254081059623,1.19301038067932,1.18410183891287,1.18392056440987,1.21369105259779,1.27837014099522,1.36315878612478,1.43564616737266,1.45416568988551,1.38080060742596,1.19379482541937,0.895242329461354,0.51209634344793,0.0894869895995401,-0.321180067389788,-0.675293695560352,-0.945624379461204,-1.12691273509801,-1.23329745224201,-1.29046389530671,-1.32590869926966,-1.36084398346002,-1.40607400537454,-1.4620790374158,-1.52201588661692,-1.57581421196267,-1.61350860174205,-1.62696491485301,-1.61035075513732,-1.56001638893779,-1.47437962345415,-1.35394216450672,-1.20119595307384,-1.02027920149426,-0.816309572017999,-0.594476458560534,-0.359282515866336,-0.114365437885471,0.136976228455599,0.390754893361329,0.641189093215862,0.880020261603465,1.09661155787164,1.27908255083577,1.41650725815673,1.5017734706508,1.5344153878636,1.52258870890515,1.48324209481578,1.4395961541156,1.41557206066143,1.42800776185251,1.47903728155538,1.5519006745934,1.61279719005483,1.61925352294823,1.5327276715859,1.33111730316078,1.01669872543575,0.616900214085878,0.177986271668194,-0.246227837170037,-0.607469465970174,-0.87432106605492,-1.0384102998418,-1.11361631181829,-1.12901411242793,-1.11866694874511,-1.11217835458547,-1.1288119249197,-1.17588110113388,-1.25034211942061,-1.34185146638568,-1.43587597587161,-1.51624778903087,-1.56729320856206,-1.57591788492611,-1.53373166379126,-1.43878317072705,-1.29619386753095,-1.11717108451761,-0.916452574663222,-0.708858958633781,-0.505955938364515,-0.313756177283021,-0.132075532482006,0.0442534398618862,0.222601579124363,0.409005626984177,0.604986069450794,0.805719707677485,1.0001186472941,1.17285476610657,1.30796200275406,1.39332177675837,1.42501065286284,1.41020772212362,1.36732669553723,1.32248044488485,1.30238311964729,1.3252095949997,1.39231141676367,1.48425223856469,1.56366613957355,1.58499250664793,1.50824483370153,1.31213132731823,1.00201140497941,0.61008952698099,0.187811585104099,-0.207314199021983,-0.526634350378304,-0.74242949953804,-0.85328067637034,-0.881223120721531,-0.862328208114697,-0.834629644457777,-0.827688121877359,-0.856749687383923,-0.922304795281254,-1.01386006813722,-1.11559300080874,-1.21153751552014,-1.28882754052637,-1.33877592044257,-1.35656695679611,-1.34062667925602,-1.29229567050482,-1.21573760116875,-1.11761205181917,-1.00613821639788,-0.889605741717495,-0.774771712585985,-0.665651328637356,-0.562996949702626,-0.464488737769925,-0.365504517297249,-0.260293694904473,-0.143324737141633,-0.0104806673633818,0.140183512610015,0.308154663710444,0.490428095767462,0.681486883055153,0.873227791951335,1.05498666272203,1.21405759496257,1.33726827052791,1.41392746959205,1.43966507716254,1.4198087429753,1.3705908184722,1.31680215834166,1.28546593657245,1.2966298400286,1.35408792984682,1.43992316305583,1.51616314245139,1.53428625695235,1.44992267819778,1.23766235324352,0.900666364495289,0.471782571274779,0.00587346379235231,-0.434348415936573,-0.794843326744531,-1.04397055623982,-1.17881435528149,-1.22201681902838,-1.21086266000568,-1.1835505810371,-1.16806675358705,-1.17696686712919,-1.20831639616956,-1.25069161647752,-1.28938825894196,-1.31152814407367,-1.30872120435889,-1.27713249976757,-1.21602773352273,-1.12602512239699,-1.00803293926579,-0.863481612444189,-0.695183480476991,-0.507943029018771,-0.308673998684046,-0.105729431216078,0.0924213024557395,0.278071277542573,0.444256420916526,0.584962421336667,0.695476029938291,0.772390240663417,0.81517070508143,0.826716955680068,0.809121747623446,0.765493961110555,0.705815376757031,0.646880968763572,0.620615015117647,0.661057528102834,0.773679472276929,0.932129101699043,1.02845060099013,0.906190792587851,0.615406829017546,0.398679553749732,0.279201323010639,0.05379050651283,-0.255235553360432,-0.400149405609555,-0.320775532312182,-0.166570983972278,-0.0447909559874181,0.0142178600402395,0.00892440016112925,-0.0350662611405016,-0.0945640050235549,-0.159945154391591,-0.226083279566089,-0.296023584221717,-0.372364720518891,-0.448316721426254,-0.510843820839672,-0.531438826689714,-0.477427840826915,-0.343046911606094,-0.153951487339119,-0.0175422604105393,-0.0916567019609906,-0.332134364983466,-0.50184380761637,-0.575290449133927,-0.751339950767745,-1.0100128688917,-1.10603849059534,-0.973179271432694,-0.7523167880292,-0.547141716707953,-0.386774851180803,-0.270375615399416,-0.168778603858685,-0.0546917173427212,0.0826262449017121,0.243616586415682,0.417729793647945,0.590238862396226,0.746955558382685,0.874092450112419,0.963083908744366,1.01574411065662,1.04566029184823,1.07594064584272,1.1320897341921,1.23125441978178,1.37254650131141,1.53264529815577,1.66905082974166,1.73106926223189,1.67522322396047,1.4793703565791,1.15080143465019,0.726023488754609,0.262077239831011,-0.178084186868916,-0.541741832180596,-0.799087736063688,-0.948253540033577,-1.01146607771029,-1.02470160327942,-1.02537937892825,-1.04254124683073,-1.09193516780162,-1.17585701007994,-1.28610946755777,-1.40823287241365,-1.52547037796608,-1.62158447474633,-1.682469570764,-1.69709651762224,-1.65846713526417,-1.5648056181917,-1.42053849411718,-1.23624927752813,-1.02696633629259,-0.808888762511909,-0.595524458171516,-0.394571602898128,-0.206586340447738,-0.0258553865674128,0.156806123841954,0.350207278376321,0.559023252020584,0.781146908863678,1.00682515174341,1.21988691603319,1.40102929411587,1.53266741058021,1.60428293027248,1.61676253803912,1.58414771371933,1.53161346205572,1.48931885061282,1.48307265121788,1.52432014972807,1.60305511877682,1.68710316899002,1.72935665120038,1.68139893147718,1.50903490847876,1.20422572867168,0.78933177263734,0.312424153729422,-0.164771640881396,-0.582811561577765,-0.899648907889913,-1.10007260760774,-1.19639667891677,-1.22062576557327,-1.21167365531957,-1.20287936915392,-1.21405266430389,-1.24965668731964,-1.30211556270713,-1.35762238057249,-1.40172514451024,-1.42303094672413,-1.41452349315994,-1.37294517475472,-1.29747392444898,-1.18858974905137,-1.04762338227418,-0.877331428682376,-0.682721155421907,-0.47133471420164,-0.252889709096492,-0.0379445087531391,0.164116722710491,0.346140341259829,0.502733314810776,0.630127036939604,0.726569907451119,0.792175745399216,0.82993388429436,0.84473164503434,0.836470547624495,0.802090322995937,0.744835673973401,0.677637404912679,0.637110230652256,0.669467011917814,0.790792881602897,0.978598432570706,1.10342014227655,0.964596764658202,0.61511208273557,0.359712269267896,0.237140069666422,-0.00977014524665707,-0.368893322951379,-0.535239005929244,-0.422536335099025,-0.209652674404434,-0.0344085370408611,0.0571682508279401,0.0576539953785898,-0.00111460172828822,-0.0850670319614227,-0.174917874913197,-0.258104611109084,-0.335288505186603,-0.410343371279262,-0.478563405662094,-0.529231306656442,-0.532690940537624,-0.45226810346179,-0.281348464981677,-0.0493290423052336,0.114543135818697,0.0166560514660689,-0.288662093739929,-0.502990855597444,-0.584084639403262,-0.775610394572343,-1.06381992038885,-1.15525353631028,-0.968838730287345,-0.67956438696697,-0.421650791370633,-0.236972552486898,-0.126028089337234,-0.049902697615625,0.0309963996586674,0.136332497377937,0.271859970970062,0.428288880710484,0.589868381731126,0.740468190468857,0.863443142733899,0.947369454386688,0.992228314765078,1.01106263912353,1.02742762228781,1.0675464245545,1.1489191196514,1.27061211159414,1.40917729596278,1.52212807277742,1.55913146473245,1.47785822900344,1.25855144123615,0.912048201534809,0.478697233676837,0.0183660565314315,-0.405231572649442,-0.741003346608507,-0.962680293238519,-1.072785751876,-1.09742967810664,-1.0747175449603,-1.0418451689035,-1.02549939791619,-1.03786202931173,-1.07787912870182,-1.13570045932373,-1.19779896211186,-1.25085270781658,-1.28349720742071,-1.28634672682982,-1.25174836141258,-1.17415846907946,-1.05122618132279,-0.885437311150629,-0.685060311003619,-0.463491783973442,-0.237250467906327,-0.0226608508454245,0.168027227841652,0.328728045670026,0.458860078760156,0.56202501920278,0.644142806695568,0.710247316046036,0.7634411816419,0.803194491152936,0.818383450338196,0.793530616219277,0.724805535490902,0.627577900510822,0.555355097219539,0.579194450367095,0.73142767993382,0.989040359210642,1.18315566259111,1.04978720933105,0.653950992741485,0.383770345061429,0.27755508933376,-0.00868003734619367,-0.461461856403956,-0.679653874143231,-0.543370169741123,-0.278731270248496,-0.0609214280696755,0.0541494959529626,0.0612058172117598,0.00443222465333105,-0.0720249509190313,-0.14687591342687,-0.209744391599469,-0.264730251546422,-0.316819779865189,-0.360269628386351,-0.384024409014969,-0.362122576084,-0.264177330679226,-0.0865498827643257,0.144129173220048,0.319022529579016,0.278240736236285,0.0699914361058761,-0.0612235210731457,-0.0934611016337334,-0.237262584224636,-0.475458865567941,-0.558719694018713,-0.424047952546458,-0.220169718695529,-0.0536037538482202,0.0469007183859117,0.0817117944331503,0.0781791674199128,0.0601497999932428,0.036501142414511,0.0106687672825147,-0.0226862624546496,-0.0677717394462935,-0.117256266594765,-0.155277963233788,-0.147536275240679,-0.0546813052023588,0.131964267001156,0.384233116135761,0.579893246294567,0.537132096326249,0.299178617576214,0.129022932156201,0.0569492389861843,-0.138930790268731,-0.437786199146863,-0.564382691295047,-0.441230049838134,-0.225068116440369,-0.0360870563864602,0.0852028804597884,0.130494636165962,0.124501024959045,0.0932711867275411,0.0505650078322413,0.00598875643447603,-0.0403372801897854,-0.0890340952078151,-0.131771418265009,-0.154741853647825,-0.127988421789349,-0.0169521507402217,0.183849995872023,0.446108504973247,0.650224928432803,0.617311223756886,0.391823658640317,0.237135522842485,0.183745255635522,0.00776628727276649,-0.275088224152495,-0.394759674308616,-0.275779856168213,-0.0735910810465231,0.0950678867152728,0.194388053424771,0.220908559955096,0.202932878429787,0.167745153750427,0.12760104537224,0.0882436061330675,0.0448641954238479,-0.00682328801012784,-0.0590687263571567,-0.0955353726487369,-0.0823428944866038,0.016005678799018,0.199940260221197,0.432152956265899,0.585209367064746,0.487222196341725,0.210891635874527,0.0375781422341883,-0.0220443582268004,-0.216555313495967,-0.52411440601615,-0.665610814213178,-0.585326982465656,-0.463819621018879,-0.418707038734102,-0.466045168322317,-0.581828546172428,-0.712190901744287,-0.81428206047407,-0.873057753340758,-0.889301127821742,-0.874486113215399,-0.838518289195333,-0.78417984156935,-0.71145351279465,-0.618442329632887,-0.501820337700925,-0.358798773468881,-0.188321450566889,0.00775211458583258,0.223475482109706,0.449126911693185,0.672427231736246,0.87943134981201,1.05542488854408,1.18671369116522,1.2633811951793,1.2827482917695,1.2525001124026,1.19142843728883,1.12652182435217,1.08622764468058,1.09094626088804,1.14370982000388,1.22496785793962,1.29473937186654,1.30293231737807,1.2049746328034,0.977141227866895,0.625929116544895,0.188259984195775,-0.277425854119471,-0.70631342400843,-1.0440548207881,-1.26012951121133,-1.35337918790842,-1.34823833611214,-1.28384809997066,-1.20076931835724,-1.13014673340938,-1.08817006984084,-1.07616282936432,-1.08475216460948,-1.09966147231534,-1.10680821567946,-1.09530470946403,-1.05811894441081,-0.991222677772035,-0.892611228734588,-0.762031440527518,-0.601277399241696,-0.41451091807442,-0.207782102602369,0.0125051936533395,0.24032956656435,0.468950227138443,0.688713143060612,0.883890025905227,1.03298859124524,1.11471108845651,1.11676024677833,1.05128796131779,0.957826691968284,0.869187089199735
