3.33274014896679,0.552400405327379,-2.44864549332331,-3.16894650797589,-2.29976580824884,-1.38313967581285,-0.937924600480412,-0.885522519647785,-1.05481714617869,-1.27250480244759,-1.44239585487698,-1.53435519924316,-1.54019254076789,-1.46319506985838,-1.31452182956948,-1.12096373504056,-0.921411026819873,-0.746379121792116,-0.606226088373938,-0.493533566674505,-0.392377926472991,-0.288418374558854,-0.176922722171783,-0.0666711827379295,0.02642259490415,0.0959623118576819,0.156918402713642,0.237946525623185,0.359426743177169,0.51753397459834,0.688063486610455,0.845059453646767,0.976506330903481,1.08277209799587,1.16152638958991,1.19863064519498,1.17911996815723,1.11025296305465,1.03369448714453,1.00958781482355,1.07542345777714,1.2053644778496,1.305844496232,1.26431406330419,1.02508293216199,0.636055886803505,0.226779525722429,-0.0685832358270876,-0.187577231322703,-0.164550393391379,-0.0971352044407213,-0.0863606936103784,-0.188508085023286,-0.396660823555528,-0.651663291371987,-0.875144428852695,-1.00916910795324,-1.0389452897135,-0.985177852548145,-0.878972548461309,-0.745269033754332,-0.605435993785514,-0.485658981692604,-0.412559751778392,-0.395040395578695,-0.410431119073179,-0.411759863123705,-0.353766568459291,-0.219456867513859,-0.0291645531840743,0.173977248667649,0.352219074909926,0.493231425999589,0.604817847912715,0.690142265312318,0.730077106726577,0.694647898782963,0.577844309644089,0.424603646451275,0.319179757314814,0.333065984141169,0.466464940841886,0.629722635173041,0.686966885995789,0.538946120466942,0.189636610069953,-0.250549621140299,-0.627309139370128,-0.828250351382096,-0.838215470397804,-0.734422728945799,-0.630100041666306,-0.605322095576691,-0.668609120952368,-0.768735739717857,-0.840666926125063,-0.849495997047173,-0.803826223205468,-0.735725428941764,-0.668596582326444,-0.599910713181905,-0.509251064946734,-0.379163302009842,-0.208342449146561,-0.00881181269521555,0.204189423442536,0.416666589497498,0.612492576399749,0.771016751497684,0.871997929549917,0.903703432931315,0.868077587292312,0.784494180898153,0.693954589022463,0.654158264570395,0.712905421722989,0.867337221334184,1.04157594708411,1.11373701866347,0.987513242977544,0.661272795040549,0.239386851649865,-0.128233673288013,-0.334687190841777,-0.369493910893159,-0.307879701333361,-0.255164980388086,-0.285839295877112,-0.408495458747496,-0.570346274920362,-0.69620195677909,-0.737944440954177,-0.702813667179856,-0.642654237901029,-0.613392408556637,-0.633469466058886,-0.669135445528441,-0.656319256510168,-0.544254757035563,-0.330149856787596,-0.060924099605301,0.195338444804128,0.383102646154395,0.475306580642473,0.469082440281712,0.37588832632063,0.220945539463137,0.0519753026009269,-0.06039731426096,-0.0492419592647759,0.10096745574221,0.321654767266151,0.4803224612741,0.454593395767422,0.214126091887026,-0.150287298280985,-0.476761178683434,-0.63038422833782,-0.583063980254672,-0.421570633151523,-0.280596372817548,-0.250265388800756,-0.32357371734391,-0.41579387306872,-0.433350409154474,-0.339253555445206,-0.173914481322133,-0.0243859092935085,0.0348586095943703,-0.00828336623443261,-0.0958087389641295,-0.139064937651235,-0.0764273637072051,0.0919100732738925,0.312940452829041,0.521321652928495,0.679397950794327,0.78993185216821,0.876945697533357,0.952954727863701,1.00014548102122,0.983103056471942,0.886745234840802,0.750515121340591,0.666002727897001,0.726480731918417,0.952914793054781,1.24871286969218,1.42985282703228,1.32969339392467,0.914917489870773,0.324318801169485,-0.209042655191916,-0.500687041223385,-0.519365849153846,-0.385995445531233,-0.282546068968107,-0.341018792487641,-0.578548344306381,-0.906321951052353,-1.19691605517697,-1.36282728831308,-1.3953305140709,-1.34579953826087,-1.27640804331589,-1.22249720705222,-1.18614692223059,-1.15164308938872,-1.10551555392648,-1.04935821078857,-0.997834459493431,-0.962044709662596,-0.933851152742691,-0.89013344084755,-0.813855392386642,-0.707729533236793,-0.587633056257626,-0.469650842752289,-0.365956178673167,-0.283395060557101,-0.214557275401147,-0.13199808076797,-0.00387163814476916,0.176148466215697,0.376091651124727,0.547352354239875,0.660902433136965,0.724247506254152,0.769166360425026,0.829757497428468,0.931802522276567,1.09277058747081,1.31796164353428,1.58786985727839,1.849326458851,2.02636436910545,2.05267841170197,1.90942026981044,1.64514056805163,1.36402799902644,1.1850377056369,1.18600994323313,1.35345495837675,1.56548419389641,1.6334631418565,1.39994397620625,0.842846779344333,0.11105802987424,-0.547497637876086,-0.925860899836295,-0.972844266261541,-0.809042534982542,-0.643941910099238,-0.656306537863969,-0.907704623101406,-1.32453302841881,-1.74548422725807,-2.0075595526258,-2.03002755277645,-1.85282492082359,-1.60569358776966,-1.42554818576003,-1.37539726931092,-1.41820504537346,-1.45931935916368,-1.42070855604579,-1.28983270577961,-1.11232308231553,-0.945853708165068,-0.818889068222184,-0.723554242972631,-0.63759185808539,-0.548666680164044,-0.458678943275883,-0.368181907141255,-0.261724811329477,-0.114081486699075,0.0857782784808161,0.31669807470405,0.532732035552408,0.692573419672715,0.789330960159585,0.858409795072892,0.956746144122458,1.12713442368651,1.37128469367018,1.64640328416426,1.88271264477634,2.01052454549939,1.98780296025762,1.82196091756229,1.57759664886839,1.35991913923457,1.26913759653866,1.33878229504436,1.49437835254259,1.57397664964577,1.41744898306292,0.973972645977296,0.349195739347168,-0.249264299713419,-0.633145297149793,-0.738412130293448,-0.649095606624064,-0.536405731051326,-0.558616019608244,-0.778437421667546,-1.13756159814625,-1.49761577016708,-1.72138580024198,-1.74471287591148,-1.59867751629835,-1.37855272556296,-1.18750800243965,-1.08726223899755,-1.0755781119206,-1.09800574589922,-1.08698092288369,-1.00394135294274,-0.855885561690752,-0.678471346609592,-0.505765447476117,-0.353359507339978,-0.222863529770767,-0.114802593150466,-0.0335388988601951,0.0198539294869121,0.0574024607752766,0.104487479585144,0.187614751563081,0.319499896170723,0.494512302221147,0.696869439060934,0.910239160400704,1.11652904998265,1.28606578526953,1.37522249105737,1.3439912024982,1.18697335803152,0.955177790353156,0.747377242855377,0.66697983188438,0.762092291909508,0.981890544435473,1.18284342337369,1.19636001806125,0.928410559247164,0.427994614287403,-0.129206367532211,-0.538920854172657,-0.684872330821108,-0.597866579723256,-0.424037937613438,-0.330311112113092,-0.410596708198461,-0.646150355134422,-0.932587419517133,-1.14702495934885,-1.21412569215031,-1.13828764429276,-0.989194204629,-0.851986505124938,-0.773644429532315,-0.74005291369153,-0.697159781830721,-0.597988750559015,-0.439297753094789,-0.261839464989936,-0.118172072823865,-0.0360417191362759,-0.00385966699543177,0.0166694931951393,0.0651773813781407,0.162523736709293,0.305401347657136,0.474687547977434,0.649180533727038,0.813433294409099,0.953917881547212,1.05062368420822,1.07774454827127,1.01773816640582,0.879163928722541,0.705437997274521,0.565838180497617,0.524502259836432,0.595151716770555,0.71109656049988,0.746352122123491,0.590120852170243,0.226006771404477,-0.246632510243822,-0.668741886691004,-0.914433661790984,-0.956485486902177,-0.867085491520336,-0.764027862089833,-0.742635064855906,-0.831655136213921,-0.990389744751541,-1.14213969499285,-1.2215458717462,-1.20566990931467,-1.11133551260867,-0.969041160232944,-0.799926098630069,-0.611933051641615,-0.410115534848783,-0.206074945257007,-0.0174424240736079,0.139881096837267,0.258468650398432,0.341018763016565,0.399108065936724,0.451688859304075,0.522041628281386,0.630504395909286,0.78473820720318,0.974352490115882,1.17419455427419,1.35196864200567,1.47272494726089,1.500784988358,1.409022936926,1.20120968208407,0.934073366061845,0.711407017118937,0.635276752806321,0.735713609653834,0.929022721313008,1.04666740915136,0.930723218203781,0.538264557700079,-0.0206910615429114,-0.545222014035906,-0.864392841193683,-0.931755486488155,-0.83360738664731,-0.71913374333005,-0.709609477857948,-0.841753862184791,-1.06550198664363,-1.28428954301718,-1.41163513762982,-1.41560178253821,-1.32851745290592,-1.21747649529573,-1.13698680683578,-1.09756749888333,-1.06909225136593,-1.00975003137056,-0.896831434044565,-0.740786861654412,-0.576941799238612,-0.441470783889973,-0.348116500527646,-0.282793825762026,-0.21877226437772,-0.137084118580646,-0.0349027371021906,0.0801699607478008,0.199307907444543,0.316754277744094,0.429257570895393,0.534267891205948,0.630070698532165,0.719512576607685,0.814226327768407,0.931750804981321,1.0830872469699,1.25987685427963,1.43228468053381,1.55778867516397,1.59402589713161,1.51393232168338,1.32506278054825,1.0853678713706,0.895266540418485,0.851412133482011,0.977096906975258,1.17752193009857,1.27003946597081,1.09127425275039,0.613799558393914,-0.0191419162763793,-0.575230047371171,-0.873163338547289,-0.882025918068529,-0.72058471465515,-0.571495009578801,-0.573799149920015,-0.757466705354284,-1.04813887214385,-1.32550361487818,-1.49244264155143,-1.51641096935036,-1.42894241991167,-1.29394699262161,-1.16829442328805,-1.0767448584802,-1.01073900275345,-0.945197093998119,-0.859749057549585,-0.752965820572712,-0.643139605617064,-0.554269690073662,-0.495266307897181,-0.449192260752956,-0.383691074882374,-0.274457139015425,-0.122083429783702,0.0484140003135036,0.200809181511353,0.304960622671828,0.352797449950216,0.366842418294868,0.393842679274945,0.483450888074522,0.663301404810089,0.924479989871401,1.22284082112734,1.49219686999911,1.66360889115524,1.68732581280856,1.55301510710729,1.30112830749377,1.0191264516149,0.819171498531344,0.795949215986914,0.971783408766503,1.25606241407444,1.45920648098379,1.37955196935847,0.926035007794408,0.19558229523362,-0.559598724598312,-1.06546509893434,-1.17775489592409,-0.956704261685267,-0.623263931232907,-0.429817836096358,-0.524693180215555,-0.885299302631918,-1.34871849116422,-1.71235834659164,-1.84301030560771,-1.73403124971295,-1.48391421045142,-1.21944648058948,-1.02133866114154,-0.899966176901824,-0.822357792660929,-0.753355119563698,-0.67565665793262,-0.583934478045893,-0.472971549036368,-0.33755283652395,-0.181662222419671,-0.022598330086908,0.11656740365083,0.220477070643512,0.293526131395448,0.365261970310127,0.481953625873603,0.681225588842149,0.962655859799816,1.27668683562102,1.54134759276924,1.67568721730673,1.63330135529346,1.42677600307968,1.13631239234467,0.89073808687113,0.813389956525437,0.949095046526886,1.21592701964127,1.42656406701628,1.3849740214259,1.00650317952603,0.380140636694574,-0.275939870611258,-0.738925000736727,-0.902375447056257,-0.818283720239172,-0.645463373735182,-0.549885851130641,-0.620996799262379,-0.843552952205093,-1.12584058434537,-1.35856472068597,-1.47029042068014,-1.45180719892576,-1.34146198288457,-1.18815956465911,-1.0212763939047,-0.847121244060718,-0.667630154116248,-0.498073476510335,-0.363547395494446,-0.277558753445953,-0.225822325309122,-0.171587824470471,-0.0750465846292683,0.0905602580063969,0.331496244860733,0.629082090573395,0.937627144983464,1.19214960341384,1.32908442252398,1.31247653002822,1.15428946046153,0.920678729807525,0.717886977493631,0.652401881871635,0.771423966068418,1.01343363242649,1.2129847144019,1.18080959322428,0.822633106289936,0.214434451668288,-0.429838844412631,-0.883435369913872,-1.0382197726923,-0.953870471149024,-0.800849889147071,-0.746369181754147,-0.861449668672743,-1.1003938909105,-1.35015579273398,-1.50633638522915,-1.52625211276225,-1.43364334123238,-1.2847855207171,-1.12790743784421,-0.982745787441489,-0.844377185182661,-0.698479699251914,-0.534762779144676,-0.352917771233514,-0.160679077682224,0.0335048652726091,0.227536035137624,0.426939014709154,0.640357252256866,0.873201365113339,1.12036941851607,1.35729326915313,1.53655771135246,1.60421849010111,1.53795905939649,1.38292540490269,1.24835128051461,1.24923108347842,1.42143300983444,1.67120407696002,1.80943721035423,1.66471677711632,1.20388767512265,0.570380083325139,0.00429871847570548,-0.303164047870175,-0.318838350725819,-0.169411645328602,-0.0473501340052426,-0.0943710545130785,-0.335162823882943,-0.686466289452941,-1.01766765421452,-1.21985626272629,-1.25070433820192,-1.14281813065214,-0.97841357105731,-0.843885485276835,-0.786747976711723,-0.797719263364836,-0.826981680794441,-0.82267229791032,-0.764738406553473,-0.670619546643803,-0.572369840878187,-0.489603855573264,-0.422934789759105,-0.366759474025467,-0.321951264643909,-0.293388547874054,-0.27140410495933,-0.223654700502419,-0.103571657485788,0.152245885842375,0.582910071967212,1.13082728929438,1.62464600282946,1.75456690046832,1.2398027799798,0.0679268102578338,-1.47010283367095,-1.8739237336543,1.16911068692623,5.88506573394184,5.98340240512078,0.439607927949155,-3.77708413568999,-2.76785593139681,0.0395551967729246,1.38888062194857,1.39922603628521,0.792595526450608,-0.0585691494150076,-0.786144711938021,-1.223738279038,-1.37919378353518,-1.32147860506547,-1.16505003610516,-1.00960000076648,-0.924662540405057,-0.940109668569453,-1.02307005276414,-1.09961770698557,-1.09872323680684,-0.987289984523015,-0.780890812109516,-0.523992288817812,-0.262060325975591,-0.0296161694887101,0.145709377233568,0.239064804613514,0.23666016941814,0.153974815622932,0.0485112241242706,0.00824403371503978,0.107873111887576,0.351305198376371,0.64334997117187,0.826936131711674,0.775719878599307,0.480688769053681,0.0643089165121729,-0.291346819816824,-0.45104562380954,-0.395628398721485,-0.216469818337053,-0.0495052432971534,0.00513094436740879,-0.0682986898260859,-0.20657884565787,-0.316461121825121,-0.332798818661245,-0.250545829790261,-0.115718494558788,0.0130421947838155,0.104606374915357,0.170583449077705,0.246703633845834,0.35793921905322,0.498911480103517,0.644679187864517,0.776439669090697,0.89632520951002,1.02051835890197,1.15776285897172,1.28940005807329,1.36900149873731,1.3492650643249,1.22077450234141,1.0322451345146,0.872737352413478,0.822082984940808,0.895501506618069,1.01661828031361,1.04711544408414,0.86879384558876,0.465203559513867,-0.0632538263456757,-0.563264580961712,-0.914795860017519,-1.07600671076988,-1.07756533312542,-0.998000273700076,-0.939653725489173,-0.997107177149303,-1.21325381347929,-1.54518215680327,-1.87209685061353,-2.05318170996776,-2.00563731756288,-1.75348808367301,-1.41275683151788,-1.12164692327406,-0.963882728270041,-0.934135009060092,-0.958187083833704,-0.945283362915678,-0.839878753705989,-0.645997718983478,-0.412258511003154,-0.191132662726153,-0.00554550221704506,0.154258136982404,0.311314528076761,0.484405215813518,0.684978733578353,0.919738961260772,1.18421041164156,1.4472494862788,1.64536257732974,1.70771379666244,1.60963928573555,1.41822773890269,1.28014024407074,1.3349720025049,1.60288812844919,1.93659011055375,2.09450146248311,1.89794644702982,1.35920417622772,0.682865870760573,0.139861567738479,-0.0939663652796884,-0.0281930314878035,0.169298215066393,0.284705294317635,0.179397438553494,-0.148494845485273,-0.584245404085506,-0.972062181117028,-1.19723296511125,-1.23433984814147,-1.14507149198941,-1.03424375428628,-0.990917627158582,-1.04641332834575,-1.1684555578676,-1.2886828452967,-1.34467013494551,-1.31367542782956,-1.22074017200827,-1.1176369024927,-1.0478228483204,-1.02204244694829,-1.01897324480419,-1.00474663077265,-0.95375557500619,-0.85785290747423,-0.723146962302217,-0.562372310168232,-0.39068084427109,-0.224511981704638,-0.0772662036511263,0.0481268834643316,0.160109567754684,0.268950455863386,0.378561417835446,0.491697546212486,0.621395601226126,0.79024545034631,1.01284192448036,1.27676338684444,1.53822725769715,1.73438243695093,1.80627503990193,1.72727438721537,1.52760776952568,1.29770760541045,1.15672789599746,1.19169059244688,1.39556278088068,1.64520486789815,1.74924266840365,1.55481057256514,1.05134134927535,0.395279851916593,-0.172166102976999,-0.464012042147468,-0.450752872835325,-0.263583666762457,-0.105307328629487,-0.134059484236237,-0.389103571329492,-0.788129175044629,-1.18167469359596,-1.43023607603844,-1.46951157584223,-1.33565863463826,-1.1371244156133,-0.988547830288953,-0.949205658555213,-1.00427006023979,-1.09143583498897,-1.14470900305177,-1.12757353184116,-1.04519129414411,-0.935978380959074,-0.847297950524828,-0.807544706215128,-0.811489554567192,-0.827364248417189,-0.818609360531835,-0.76463100602939,-0.66849300512905,-0.549672919638067,-0.428850935134744,-0.315012237504042,-0.203128953428815,-0.0840203903099185,0.0419378975785956,0.161224066471559,0.260026017945046,0.343379570998107,0.442323297518077,0.599999054731738,0.843972369077414,1.16117353700964,1.49059970169719,1.74149892454293,1.83338374295444,1.74066948858568,1.51668346459447,1.27880486448426,1.15711313321355,1.22895185584277,1.47002227299227,1.74936927385819,1.88174264202323,1.72254541616708,1.25626456500522,0.618457433854957,0.0276896864454392,-0.332525477227285,-0.405815093416926,-0.277070010335821,-0.113404542075547,-0.0753208337234609,-0.243297157711349,-0.588042110818059,-0.993630247049522,-1.32152237040648,-1.48199323221717,-1.47309842136191,-1.36712816575667,-1.25868214879378,-1.21094874614716,-1.23191626664432,-1.2871301971138,-1.33106601865884,-1.33269005569103,-1.28361635357201,-1.19406349524924,-1.08593000361912,-0.984262506170009,-0.90417983676224,-0.838412173481529,-0.758358151234597,-0.633163529399306,-0.4532012544265,-0.238299277563774,-0.0243414674165697,0.160879277080597,0.316210450998713,0.469820134930082,0.664517169105106,0.931440799191901,1.26414651497765,1.60814674838815,1.87553320837195,1.98153162939445,1.88830085611695,1.63636110422536,1.34423828218686,1.16384110518042,1.20007365028085,1.43457074041608,1.70934954044215,1.79982362340934,1.54524680800038,0.954047482119488,0.209094357913121,-0.434115484157418,-0.788236581756942,-0.824906142620743,-0.669981500862811,-0.520497055629278,-0.537686782184192,-0.771360800064234,-1.14849960101827,-1.52546792636857,-1.77041365489625,-1.82760731273573,-1.73032103386577,-1.56325212804223,-1.40487343656752,-1.28724321251913,-1.19451503950343,-1.09271200383879,-0.962297972137252,-0.808841262351033,-0.650798003106786,-0.502504608737,-0.36795824964948,-0.244810319741871,-0.127673404996501,-0.00428716176086812,0.149958617761132,0.367488649863325,0.669111942585406,1.03955835956242,1.41694881610778,1.70898418563682,1.83201483549347,1.75512220977351,1.52665926092413,1.26542557036245,1.11304893869159,1.16405898989284,1.40516466817122,1.69917757144218,1.8378453123289,1.65272617158498,1.12371113558508,0.406780425948671,-0.248563746224912,-0.639511633193239,-0.714420132260075,-0.581530815626972,-0.431280250737186,-0.42894945996208,-0.636710339169451,-0.996902058415064,-1.37552886497985,-1.63858313413579,-1.71975338789598,-1.64394887387811,-1.49738755269915,-1.36709317312622,-1.28989788612863,-1.24193742617489,-1.17010384541811,-1.03838290403424,-0.855145857507319,-0.664615658817044,-0.512175004449148,-0.41094588063821,-0.334612257427888,-0.240427896415118,-0.102754674453394,0.0704113029365437,0.251392917651784,0.424542677793286,0.60595753158711,0.830632330766435,1.11510663320375,1.42517601742123,1.67550090363436,1.76750583219492,1.64847619190516,1.3579283243189,1.02705891434322,0.820989889474035,0.850266314059618,1.10050602243167,1.42240376956193,1.5956784592482,1.44237623280133,0.931049311665304,0.207533155156855,-0.473551129861537,-0.879877027363631,-0.917907921587823,-0.669336158439882,-0.334432376988528,-0.123413857228307,-0.158903230895697,-0.435164932888624,-0.841447019949467,-1.22454250039338,-1.45576405201001,-1.47652965471886,-1.31128376973862,-1.04807186976321,-0.796137803628793,-0.638516099944224,-0.601733979173973,-0.656547124908465,-0.744487685246968,-0.810140013399648,-0.821021168074064,-0.770452511347939,-0.66950159211949,-0.536072126686214,-0.38702017672423,-0.236180419113158,-0.096128156988384,0.0223316448965213,0.114576018577721,0.184446326506233,0.240801270347339,0.294319377203727,0.360103364877467,0.460429047716971,0.618089786901295,0.840775464331545,1.10742325710265,1.36777093522586,1.55850670680773,1.62867426629664,1.55997984846737,1.37288578751275,1.12280213167167,0.892962094902631,0.776455314683617,0.83468075703863,1.04432483618417,1.27751443069628,1.3535519634544,1.14484012048741,0.663360405363398,0.0586715214719268,-0.47287587597521,-0.79889694089094,-0.905971548583826,-0.875690274514375,-0.816274491648628,-0.803119527784459,-0.860233400956161,-0.978936074742517,-1.14595733992554,-1.35251148111138,-1.57752097073656,-1.76723508250222,-1.84458330433921,-1.75667445181842,-1.52510329031718,-1.24846743034133,-1.04403417990514,-0.970558173983762,-0.990916500389053,-0.999567481603564,-0.892122835156046,-0.630269885294331,-0.264523550828785,0.0940153589250866,0.334644432737592,0.409065780741812,0.36230213675185,0.312798744308645,0.388222588664597,0.651278042465815,1.05877670216659,1.48063967502527,1.77212651255782,1.85716085053426,1.76711515031844,1.60786915817005,1.48181081118198,1.4235158732421,1.3917195362693,1.31575347081805,1.15900819924861,0.95464052883712,0.787533176428417,0.730192503789702,0.773629924471762,0.807307457434632,0.677814458903442,0.298664447018895,-0.267480451438498,-0.825979683652043,-1.16521843570768,-1.18863123112198,-0.970646325528588,-0.704416056836293,-0.584241075324124,-0.698948896956811,-0.994603947894549,-1.31881094250266,-1.51348640438484,-1.50060658580962,-1.31466814322071,-1.0684720408928,-0.877584541368763,-0.793066562615389,-0.784469832746726,-0.776940088770015,-0.707534817614816,-0.560095547277409,-0.364210946293225,-0.170489655455589,-0.0211116914301884,0.070488321377595,0.122448510116954,0.170151048489117,0.247073329253146,0.374567496140127,0.559957041790388,0.791668772820815,1.03026811026126,1.2107352489848,1.26793822124855,1.17558409686042,0.973647066776318,0.762337948782617,0.655837858036518,0.712329525666471,0.882348141958209,1.02123747772949,0.973513226509689,0.678046803273208,0.216146652068699,-0.237517452385056,-0.525515970955265,-0.598193444911892,-0.526531804028038,-0.443131984227491,-0.459288554348128,-0.606090942620475,-0.82620156872212,-1.01694927124566,-1.09734285001837,-1.05514250017801,-0.9438575013859,-0.836842118559819,-0.775591337242857,-0.7487918234319,-0.711663978900305,-0.624939220017524,-0.482669173708149,-0.31276934927609,-0.156505163243512,-0.0432565487688455,0.0264524718881604,0.0824787308803384,0.169230048184541,0.319944367795598,0.537281889800848,0.792279538608985,1.03805848566832,1.22519760361091,1.31252195478446,1.27896476954179,1.14158112732125,0.969249187075999,0.868173765352502,0.926029891311126,1.13911292406952,1.38086893121735,1.45782572762113,1.23272613093724,0.727588349182241,0.122291438557696,-0.354424210701431,-0.559526768947837,-0.503747129116479,-0.323797871983071,-0.196026788678536,-0.247747096365601,-0.503237227872522,-0.879185191236646,-1.23037441578747,-1.42769243056782,-1.42718735285253,-1.2859567265591,-1.11426635531973,-1.00100315156628,-0.968231339988083,-0.981545671646225,-0.993863555512517,-0.979022582311026,-0.934367270111458,-0.865991773838242,-0.778348542508203,-0.673970494873822,-0.557120654040576,-0.436511118836909,-0.324851993664399,-0.233105096898448,-0.161664444230083,-0.0964141123751667,-0.0150772396393091,0.0995337904732358,0.247705018585179,0.409658320320379,0.554429039025467,0.657507088489456,0.716667939267556,0.755548531413762,0.813150747866444,0.925113264471791,1.10427612922802,1.3278477175803,1.53820391951015,1.66109679676864,1.63794892762709,1.46011047610775,1.18677558810902,0.930824000977944,0.810227076020691,0.881813971838573,1.09158012082005,1.28055614926536,1.26252888256983,0.939161640997022,0.375000265561278,-0.230614142427814,-0.662275636091215,-0.813647721491988,-0.734232989036722,-0.578622906222866,-0.505795194968967,-0.595143346539322,-0.8211252567031,-1.08823559296999,-1.29566020034863,-1.39025628940644,-1.38070804086594,-1.3133976936362,-1.23297840919105,-1.15573312667216,-1.07114050247234,-0.965490958136954,-0.845293901339914,-0.73978363306644,-0.680340002415719,-0.674566944845775,-0.696904675175437,-0.703183317683887,-0.657235860192467,-0.550274706150316,-0.402236470705131,-0.248182845692886,-0.120089971986597,-0.0331034509154001,0.0190001002340515,0.0583295071940075,0.110441227454154,0.191516151146673,0.301819771548422,0.427569830323247,0.548554273824565,0.648274851958149,0.724100457107421,0.792422460191573,0.882387733017565,1.01805793007871,1.19832131911453,1.38677663574952,1.51970195168141,1.53348578272334,1.40234475350857,1.16531005808279,0.920995821318754,0.784697321976844,0.823831414727518,1.00418122502727,1.18540862031803,1.18689603356819,0.897892707332312,0.359768768647775,-0.246166715083967,-0.7043668595427,-0.890165091694254,-0.829019084778063,-0.661470860701493,-0.552246960609493,-0.604688217159443,-0.820726125598151,-1.11479908492641,-1.36695360953055,-1.48615279714813,-1.45146812183471,-1.31168313801691,-1.14790120556664,-1.02434388772002,-0.957241233562828,-0.917701949258961,-0.86091652411196,-0.758269018745875,-0.612210671536649,-0.450157851140011,-0.306835122050197,-0.205834320819695,-0.14720269629525,-0.106555008590816,-0.0487819030785599,0.0498608335672625,0.186444715026046,0.334627971048047,0.463912246406973,0.560221395593779,0.633119862736331,0.706218506011677,0.800197232005887,0.9210415341601,1.05807912882653,1.18805360220168,1.28073890980123,1.30487758785458,1.23639855900191,1.0729588953076,0.852863471239651,0.659966900466539,0.590346582054655,0.684262160081764,0.870874136407465,0.983685936000554,0.856988845694093,0.442988097843947,-0.138963959933655,-0.664583317374762,-0.939052655897972,-0.911787413403958,-0.696711670399688,-0.492077439199708,-0.460547136197175,-0.647111485460457,-0.974556581286883,-1.30218066195958,-1.50439863801117,-1.52846021980435,-1.40795491763703,-1.23081740186815,-1.08343289381155,-1.00486580465231,-0.976658050987607,-0.949462623001725,-0.884464354853301,-0.779501159947098,-0.662833024584349,-0.563551421174371,-0.485672090402179,-0.406912799710315,-0.299499284168943,-0.151627959763687,0.0290068122771811,0.228048982585053,0.436085757771669,0.646906811595586,0.849081055254473,1.02516944346264,1.16124886754232,1.25628150879967,1.3232960424588,1.38502345285982,1.4673422876492,1.58577978003319,1.72290791926759,1.81343436201193,1.7668780157447,1.5362131797023,1.18507820006909,0.872312100597468,0.732308624491721,0.751212992978967,0.771731936989084,0.632428961006116,0.304103945015563,-0.100894895284709,-0.432817269349999,-0.613795232173672,-0.670023220037787,-0.687470345549941,-0.743229176802892,-0.860621937376825,-1.00597384898166,-1.11929633734757,-1.156698987879,-1.11742368108859,-1.03843649566156,-0.963833341939787,-0.915628033352114,-0.887312958790872,-0.858282256330454,-0.811891394610918,-0.744912866460478,-0.667481448619081,-0.596071009584689,-0.542206096212548,-0.503553172018218,-0.465277241891144,-0.41146776959002,-0.33720505151764,-0.25239592033986,-0.175642769713001,-0.121277270344152,-0.0863225775577446,-0.0485951796045695,0.0170372335438538,0.114729630226109,0.219098851467213,0.292723108305653,0.314665948960122,0.296335653334826,0.276242130102178,0.301618817779923,0.406648547281086,0.593161610892033,0.821130253151333,1.01773005665377,1.10601000699168,1.04115530158103,0.836290853036032,0.565678765786795,0.342648865604112,0.275201676364529,0.410227031620816,0.691599734931431,0.964810590119985,1.04332353312483,0.812590924497231,0.312773773035186,-0.267468413315171,-0.69839019556421,-0.836755569657622,-0.701946665096002,-0.44054179519205,-0.15670515173464,0.148497684887025,0.48830051730344,0.811383196625394,0.770106399940642,-0.0781821612143142,-1.89233277232517,-4.54005619728376,-5.21225083010305,0.82448014386535,9.23248834576658,7.20135380189669,-4.4079177992866,-9.55511027244501,-3.7811264921583,2.13577649931533,2.72072451826763,1.16527620880361,-0.15031453101452,-0.937861203799928,-1.09911147323265,-0.886209190669366,-0.612077243374212,-0.388540884805858,-0.247675409031337,-0.145043505463721,-0.0435362448954025,0.0601815461123556,0.190439832319647,0.371598178486704,0.598316411648397,0.831887115342361,1.00785248381705,1.06467528255965,0.978617225030284,0.784716923828405,0.574290221800465,0.462607802361571,0.530890807218095,0.766548105788284,1.04294846314549,1.17133487052425,1.01040977054421,0.56418392185399,-0.00742726435078779,-0.479365048566891,-0.691067613056853,-0.628569018628684,-0.414427639810074,-0.22569612967185,-0.198025077007452,-0.367426420859573,-0.668723077908995,-0.979494217013994,-1.18266947960445,-1.21809216592811,-1.10180951566677,-0.908835497677096,-0.731286388055305,-0.632356687030448,-0.618537338509889,-0.645805751682181,-0.655934579668233,-0.616344881019593,-0.533465140024311,-0.433461031543162,-0.333427953631566,-0.230569017786272,-0.114278469205016,0.0160189425090439,0.1444713947665,0.24670080248526,0.304972945517471,0.322761277599847,0.331239200892411,0.380190960565349,0.512953755935869,0.739025062416304,1.02348843840175,1.29990997526215,1.49612997874114,1.55851228768109,1.4685095721353,1.25203576630563,0.980643904935321,0.75817754034123,0.685549930409779,0.807205417598704,1.06472893901362,1.29786787387545,1.31601524211929,1.01229073585522,0.445316189038865,-0.179458925562238,-0.627296942181328,-0.770872120734852,-0.652084283070679,-0.437265016922506,-0.311003693422251,-0.380015536451269,-0.632304723514583,-0.959553750677396,-1.22473735092541,-1.33820484387079,-1.29859143702714,-1.17563947427299,-1.05312655063989,-0.977134710581916,-0.943832100385128,-0.924402682514436,-0.896959282230404,-0.858186505666711,-0.812781376832671,-0.759791049330736,-0.693202839695333,-0.614546590140399,-0.539740042132867,-0.488138233485369,-0.462243438926307,-0.438507813167233,-0.380500471683593,-0.265627934271367,-0.10411466551628,0.0658264468524382,0.203573103542743,0.292069242410226,0.344336242578972,0.388467697865364,0.446612164309012,0.525295667934689,0.622078379343918,0.739420751303135,0.890441841761066,1.08660044055143,1.31354484252129,1.51790297622919,1.62504721826861,1.58151174357754,1.39229922856903,1.12849380907363,0.902417984470591,0.819635370678568,0.921781977711444,1.1464389323231,1.33756290438029,1.31835366288869,0.994212374631165,0.421798218176446,-0.208261043332294,-0.672850723444716,-0.839935567743817,-0.735638594579043,-0.516797909176666,-0.374254784320352,-0.430932655362215,-0.690829911345155,-1.05477527478848,-1.38095203602562,-1.55481349173148,-1.53819094631293,-1.37834582322874,-1.17427175708005,-1.0197656334043,-0.956828402217085,-0.964979024666649,-0.987227139419277,-0.971142020980714,-0.898333000953733,-0.787775668581309,-0.676787774494579,-0.595064632614505,-0.546524675718962,-0.50655090443553,-0.436207617801871,-0.308380925968307,-0.130276804681324,0.0569880723937666,0.204919167830293,0.289468868552406,0.323202004659322,0.343276754485084,0.389704415786494,0.487660711760216,0.638510680063631,0.821672229035008,1.0081215927404,1.17716862093759,1.32094079996625,1.43140965859303,1.48608004565616,1.45446741746704,1.32652682262649,1.13787905948069,0.964625684953328,0.884559366676378,0.927778150011799,1.04830067129635,1.1373213266908,1.07618042250664,0.803360083885932,0.356843236331774,-0.138020591527257,-0.533352760771461,-0.737887182892568,-0.759838626525143,-0.689044215028015,-0.637663930208112,-0.682018602234567,-0.835228202088166,-1.05271038639132,-1.25875506247346,-1.3831328259078,-1.39485440643265,-1.31478515980805,-1.19660964269676,-1.08912368253416,-1.00885294698416,-0.941173968660089,-0.861992384805255,-0.758582830442647,-0.636282990921261,-0.511511598458359,-0.398432957232551,-0.299149718559009,-0.205739639953111,-0.111655783402488,-0.0188611308142136,0.0677135374811089,0.150187041938888,0.239337182927325,0.347779394396095,0.484568373022046,0.654290995296207,0.853960472340976,1.06560478442018,1.25381939176769,1.37627422238514,1.40181261705091,1.32420648264746,1.16691793223581,0.981731705004881,0.840153351895638,0.809173057347923,0.909989285912752,1.08175154060936,1.18859594509837,1.08819235532324,0.727326582418761,0.192541911813458,-0.331347305038468,-0.669131007320545,-0.75201292704641,-0.642399294240643,-0.484724342378003,-0.423653626785916,-0.534756052324219,-0.795134782531857,-1.10281051401114,-1.33494653776895,-1.41456693759247,-1.34656392869259,-1.2021308543647,-1.06688586280266,-0.990678356032363,-0.968996380214488,-0.959832081518734,-0.917998098226214,-0.822894635203842,-0.685630172267421,-0.537382237328908,-0.409741705225743,-0.317274359136892,-0.250459318369616,-0.183940600141116,-0.0949848525380951,0.022784391742818,0.160822118216911,0.307499267323718,0.457853249910669,0.614998238016882,0.786052721713278,0.97678585232565,1.18467242350473,1.38954033316083,1.5487154072411,1.60901411376078,1.53748258965106,1.35276552083864,1.13204050066956,0.982187913706307,0.984078850002326,1.1355785153514,1.33021265204411,1.40038331161247,1.21362449345046,0.761997273293894,0.177768289728586,-0.340537631034785,-0.640541742971929,-0.690963188440986,-0.578429253008145,-0.444527533245313,-0.412657149270434,-0.540389740107765,-0.804375397313434,-1.11511235951104,-1.36033807416974,-1.4621605942947,-1.41362995898059,-1.26945064890654,-1.10304072559078,-0.967304316178851,-0.883079026259527,-0.847965792144003,-0.845995318656703,-0.852196087776933,-0.839568637385037,-0.790504449102911,-0.703986506286128,-0.593087604260521,-0.477183268209827,-0.37393974999091,-0.291894670572199,-0.226324514412175,-0.16309239252394,-0.0884373818600373,0.00416754299778182,0.114317831287602,0.236958619619089,0.361769352549118,0.473442160615652,0.55878781390436,0.61789687652265,0.66975334958654,0.746483225501002,0.877943212937975,1.07230719754693,1.30107755343891,1.49946578777318,1.58915832107303,1.51791644135794,1.2970267023283,1.01298778491834,0.798071224109384,0.76430362039798,0.930606978009824,1.18886194208373,1.34379465164645,1.21949143134615,0.77375964358484,0.140623869784581,-0.439773945505565,-0.763164263597806,-0.776794257009713,-0.592480575749738,-0.401885533144932,-0.362838593684307,-0.526269622413467,-0.831221796063311,-1.15388908106619,-1.37647693805853,-1.44086292296781,-1.36401208174647,-1.21325634082711,-1.06222858835056,-0.956436915245778,-0.903488662529129,-0.882824050857231,-0.863170211996915,-0.820058964489577,-0.747715264331516,-0.659627955417489,-0.577171090154445,-0.513475668686316,-0.46278723663264,-0.402217643765076,-0.306316946899905,-0.166861720447375,-0.00352968329059244,0.145872041882096,0.250733917562869,0.308147114428607,0.341949503349201,0.383925160615953,0.455334221455292,0.562253225134165,0.70260351631743,0.872653597825579,1.06407914169353,1.25449994586441,1.40301116392703,1.46011623409815,1.3914749396288,1.20422309727873,0.958838330720256,0.753131132412165,0.678866139722882,0.768690615499351,0.961780823683134,1.11531206962187,1.07071337691775,0.748109063014757,0.209716720664206,-0.360824524388247,-0.760924055088356,-0.88712394571772,-0.787422490863847,-0.616198972930296,-0.532119801666444,-0.612647488298009,-0.831798649040058,-1.09529234736509,-1.29759688191683,-1.37049164648078,-1.30880590075295,-1.16679195473223,-1.02426504437782,-0.93698412056202,-0.902774884880706,-0.870435302903799,-0.785701284942024,-0.635652385888709,-0.4554483942895,-0.29726269768803,-0.19240303923108,-0.135960495250437,-0.0985521925159226,-0.0490008652913566,0.0302538041054095,0.141532328449489,0.278559820398428,0.433047407103407,0.59852366267939,0.772925484183222,0.957731419735319,1.14830658647426,1.31925519781433,1.42187738582491,1.40701883590539,1.26313267879049,1.04047571425833,0.838751544616211,0.759644671226427,0.846432381370667,1.04245482937312,1.20015318012393,1.15353990903243,0.822956754767955,0.280878322401839,-0.279300730404082,-0.657823450950995,-0.765216486623249,-0.661764941335362,-0.504988726253122,-0.45184445565541,-0.576422980322363,-0.841528996224654,-1.13202206052282,-1.32849610480393,-1.3764464432138,-1.30709298396704,-1.20079625819656,-1.12621140679038,-1.10022584910893,-1.09032926686361,-1.0490666027152,-0.952337690659635,-0.814999692105445,-0.675794628473187,-0.567209051581275,-0.495038133643342,-0.440128896814168,-0.375120967964887,-0.279871172526354,-0.145863551140867,0.0266203878998659,0.229404919757143,0.444023756328908,0.643368274027631,0.801933033761351,0.909770962959689,0.981151916734012,1.05173087640003,1.16258532601949,1.33530786259593,1.55023509831502,1.74328130434621,1.82878100419205,1.74132642916172,1.47906357141596,1.12529482882245,0.82471779697206,0.70818079052769,0.8008032104649,0.981707379348025,1.04390926524586,0.828340413608994,0.337489590587839,-0.259140037305103,-0.732202394441519,-0.93176815615504,-0.864867490951646,-0.673630138427796,-0.542408916316165,-0.593688721199355,-0.827654378878258,-1.1333816802215,-1.36090528723393,-1.40849231814403,-1.27247414197604,-1.03628194304219,-0.816288224962418,-0.701476222121909,-0.715878148712399,-0.815532922328039,-0.917664206203078,-0.946840002246976,-0.87323848245908,-0.722461467499594,-0.555013943754868,-0.431386709725602,-0.383263755355298,-0.403891537566519,-0.457994491905144,-0.501056885407656,-0.496284133132316,-0.424623307084103,-0.28908326860678,-0.11351190915296,0.0659997653436622,0.215328514588986,0.315076645132169,0.365811993548496,0.386716563251991,0.411855351631254,0.483082207526921,0.635073269629151,0.875866395963711,1.17567289550844,1.47242946205169,1.69044835959681,1.76498720582304,1.66904022795906,1.43549830807098,1.15933707317943,0.966292753763205,0.952401079001247,1.12150182976082,1.36029685872006,1.48112706622247,1.32463129887467,0.863285447478989,0.229163191093929,-0.361027726434961,-0.729766258256665,-0.824764580934775,-0.722921370953617,-0.57156106736776,-0.512493186465338,-0.62249334492803,-0.886730524818736,-1.21265272240275,-1.47944379844709,-1.59876021639004,-1.55285370052296,-1.39034712441829,-1.18838973070639,-1.0097331135654,-0.880717823084202,-0.796582703550668,-0.741163513650708,-0.702522265879595,-0.674443895650139,-0.647269728706906,-0.601199882119573,-0.513670244102557,-0.377908322978538,-0.214676448739682,-0.062584889430567,0.0461856285226334,0.10356761601042,0.125132469814203,0.138180179727473,0.169208393559472,0.234113659416924,0.332484604797115,0.451057935442604,0.577473772174194,0.71388479279059,0.875853743604104,1.07313658478931,1.28624802643569,1.46014141394667,1.52567913117851,1.43918662919922,1.21729767114236,0.945483552075989,0.748976043116667,0.730798645622277,0.902708115410039,1.15203661525729,1.2819431956023,1.12121941580057,0.640234926789432,-0.0144378884731092,-0.602780656475292,-0.935300989646308,-0.975062031357582,-0.835090303669032,-0.690872952584813,-0.677438131818915,-0.83039385288962,-1.08836037285319,-1.33943390105624,-1.48189999426815,-1.47210190083275,-1.34002361512142,-1.16531031235809,-1.02611979728073,-0.952220747459566,-0.913879313400649,-0.852786550787104,-0.729710261804457,-0.553041881615845,-0.369961417277296,-0.230457754178936,-0.152429809443012,-0.11293730185096,-0.0695664801876644,0.00721537853405028,0.115994561715742,0.231446687678088,0.327499640830363,0.398660738769891,0.466009020716867,0.565474255607576,0.72590086821033,0.948211295772319,1.19555277733501,1.40094265144597,1.49302951131656,1.43093064047534,1.23131042445619,0.972163589363918,0.767250149881874,0.716957135056169,0.852743696734381,1.10212474154538,1.30317512709551,1.27954325103137,0.945577642613671,0.373692530498162,-0.232808132817486,-0.652275715486871,-0.768028271680266,-0.622844166571447,-0.379440066417118,-0.223471831324896,-0.270555538772533,-0.522411032286234,-0.882242900285898,-1.21078532458979,-1.39269160284484,-1.38425748807773,-1.22282928556635,-0.996652821108607,-0.796447697322828,-0.678857333121401,-0.656770656218907,-0.708422719619785,-0.790347808543485,-0.849818228827938,-0.841254110277412,-0.746445094696835,-0.587333357334637,-0.417636779376201,-0.292984687017207,-0.238166072058792,-0.234745529550705,-0.236584241214512,-0.200061741413589,-0.107855117237055,0.0267094297238339,0.172636783730365,0.299678394716803,0.39172303998219,0.451996053119877,0.501077546374632,0.568851865581692,0.682166919870549,0.852032078218996,1.06501199123194,1.2825702281004,1.45039876449051,1.51682203508756,1.45526235252218,1.28258914924427,1.06413313052148,0.897010754958408,0.868907343526023,1.00384428722015,1.22526663670749,1.3723164664311,1.27970471098778,0.882383473242888,0.273405642822875,-0.334373098592501,-0.725040321134352,-0.800600882250502,-0.630415537535776,-0.402612471415271,-0.312555787728737,-0.457793929719024,-0.798095256925713,-1.1945843670535,-1.49470748647813,-1.60874596814051,-1.53818835452862,-1.3525541493953,-1.14203659899765,-0.977984918903888,-0.894861991927958,-0.888628853561074,-0.924412892225288,-0.953226020818317,-0.935533917445575,-0.859238489192002,-0.739465771986298,-0.60283906742581,-0.471331455533281,-0.355923491973423,-0.258018821824078,-0.172741454854905,-0.0920524247617322,-0.00769475205313044,0.0866969236509084,0.194326505360634,0.313815925454021,0.438229017630875,0.557093460328296,0.662283484990882,0.754670553474665,0.846980866394406,0.959740776110237,1.10919368751499,1.29044621808499,1.46648842366194,1.57561744171724,1.55949107521659,1.39938514643313,1.14079408322875,0.888083622280592,0.760653496453016,0.822919362670546,1.02656273735763,1.21262244538,1.19217295646769,0.865862929922846,0.29942717410389,-0.307044721964301,-0.738379427715295,-0.88565891324596,-0.790556486091029,-0.601111601714393,-0.483628209857768,-0.542361806363396,-0.777868334170122,-1.09564445418908,-1.36013972556106,-1.46821475895611,-1.40129755855032,-1.22551674664491,-1.04312350557633,-0.930620472960725,-0.902892877497209,-0.918408427893226,-0.913091694156775,-0.840273232748123,-0.697704191741155,-0.528617760921219,-0.393857824954995,-0.330057313314565,-0.322652684386612,-0.315222413644064,-0.249726953687997,-0.107578516740196,0.078996673813156,0.251495810557577,0.364586426313611,0.412271056729087,0.427376981498728,0.460881014247534,0.556405688034766,0.73131048992838,0.968383827022889,1.2186006302044,1.41468829728742,1.49330035716741,1.42044265813003,1.212252213459,0.94098482331941,0.715865731580484,0.636581789335029,0.735453093648571,0.94170680612492,1.10018247859161,1.04861926069662,0.71509405197564,0.172398268766198,-0.393309763670982,-0.784892693035189,-0.902780755316121,-0.791501436995374,-0.60050956248019,-0.492229766935953,-0.557061724893139,-0.778908676529306,-1.05852331898359,-1.27380912787653,-1.34353531504679,-1.26211321396071,-1.09008565669851,-0.911042292260893,-0.783390473970376,-0.714756173664973,-0.670569843328701,-0.606170687744665,-0.498421191346093,-0.358076023774937,-0.219464255084266,-0.115642179375683,-0.0540506481248214,-0.0104352007645124,0.0517148271977612,0.151950557182956,0.281816792988337,0.422714620492596,0.572265607945496,0.748133271491447,0.960881019134738,1.18069853355922,1.33391423108757,1.34257573429742,1.18311768692233,0.920502605548648,0.687916988181539,0.616583216729933,0.752253120055995,1.0089650195602,1.19840505905225,1.13265451473858,0.745087951262125,0.146965612426148,-0.429730158793314,-0.771595325548252,-0.8091015835283,-0.642987770018801,-0.464120761554059,-0.43304871263264,-0.598623650338678,-0.892697208952889,-1.18628698806841,-1.36559529533353,-1.38621585128747,-1.28159702862803,-1.12891229114906,-0.998599569504867,-0.91897754047941,-0.873031966000356,-0.822065084072959,-0.735355539618934,-0.606239127863854,-0.449819911952073,-0.290863559219023,-0.1520755117201,-0.0468463207270425,0.0247752237288707,0.0784617275492236,0.144080911121382,0.256307019849131,0.439269519287398,0.69393944740175,0.994338399240897,1.29093202864685,1.51897231450594,1.61516864626875,1.54550460252108,1.33525954462788,1.079258522854,0.911915945322883,0.939134849213229,1.16525312505605,1.46446135344871,1.63006048860828,1.48798288252866,1.00924036410606,0.342175180632289,-0.266205721034189,-0.610523198199808,-0.635435179463356,-0.44747928654114,-0.237332274700412,-0.172562695991245,-0.32304723131287,-0.646736895289232,-1.02652314548347,-1.33081742439441,-1.46982911854259,-1.42658110105366,-1.25320116481095,-1.03865776254352,-0.866902928474783,-0.785677258596745,-0.796111016817768,-0.860877317231951,-0.923499824101939,-0.932865545596202,-0.866007014923217,-0.73819623595616,-0.593032015200923,-0.477908765397302,-0.419197224039496,-0.409842794681148,-0.414908226680837,-0.391772550257658,-0.313324976882633,-0.180643855684598,-0.0192097031645125,0.136592369188593,0.260005843655343,0.340628458066977,0.384006344108812,0.407243244583284,0.434572458743023,0.490833148390458,0.590947542777745,0.732233544714115,0.899317151187079,1.07789388336724,1.25964108024006,1.42985809138026,1.55361788336803,1.58257445864773,1.4842035852537,1.27379643328068,1.02650475447491,0.855412876839041,0.854655754525319,1.0297862485457,1.26360358345987,1.3612893111601,1.16507809244725,0.663635036531084,0.0118121964667759,-0.55809930678753,-0.869537039667971,-0.889145323059528,-0.723675057228632,-0.546644862114485,-0.506822203627409,-0.662882655490976,-0.967176775359516,-1.30083901414571,-1.54023582791025,-1.61723273908023,-1.54030485738725,-1.37205280504837,-1.18739241558258,-1.04110468321473,-0.955731427278175,-0.923937954980435,-0.917822396624754,-0.9032534969848,-0.856550896014391,-0.774852833279101,-0.672593700436658,-0.567794219625122,-0.470542689276213,-0.381155475699012,-0.294427653654367,-0.203365558735244,-0.101093132635027,0.0170307383017949,0.150758779781074,0.293129832330777,0.43068911152125,0.547178613757299,0.631622790745522,0.687887740906486,0.738550940762208,0.817572780116238,0.953956082103644,1.1548032546952,1.39540530759041,1.61986035052204,1.75444711399957,1.73529959554746,1.54447897642164,1.23610909398264,0.929481804277817,0.758831262307903,0.79695263473666,0.996313193829842,1.19432686230929,1.19564697341288,0.889012379649171,0.322099637139126,-0.319828766992376,-0.818822744925528,-1.04293985548377,-1.0061845658356,-0.84285119722418,-0.722763958336788,-0.760767637586024,-0.966945654550674,-1.25575869365447,-1.50098123431414,-1.60393783019878,-1.5409391958525,-1.36832863304283,-1.18374507877427,-1.06537050381081,-1.02701590596472,-1.01886093413242,-0.969657128719819,-0.83539895003933,-0.622102804264504,-0.377538018670949,-0.16506908320219,-0.0321546686861789,0.0154204021270057,0.0181704787492537,0.0376121875988013,0.115837954676414,0.251337526197517,0.40924330413925,0.553429779675188,0.672076205356922,0.779811464607464,0.901033182674958,1.04929111507183,1.21377843409878,1.35697198398997,1.42510877663217,1.37195203947599,1.18955255314447,0.9296264979551,0.695994227198718,0.59973163604946,0.692146176090178,0.914114709461198,1.10414336792543,1.07796854619617,0.741362423999228,0.163131208733619,-0.448385642900762,-0.858812236304241,-0.940795223126141,-0.742142720005683,-0.450308130601056,-0.282329566774637,-0.369903157815007,-0.700956764433088,-1.13821823916672,-1.49510873054106,-1.62926013809406,-1.51090144331416,-1.2322216003717,-0.950239376331043,-0.795617028410311,-0.804289390422327,-0.911967105145281,-1.00603476480469,-0.994248894319299,-0.848745844208059,-0.608210874808566,-0.347281184957784,-0.135401132546449,-0.00625093568059455,0.0507901115449707,0.0777712897866163,0.12417223505733,0.225973189762421,0.398125113521625,0.639448391190057,0.938035951194455,1.26739016300444,1.57865677744501,1.80408745044552,1.87937276928131,1.77751373411888,1.53686152858715,1.26259904585929,1.08778609189196,1.10304280375997,1.29218407374453,1.51943716822103,1.58972705410825,1.35846491175039,0.827258782294515,0.157618316730086,-0.4172382760527,-0.728059982042517,-0.759648114783628,-0.638054501299798,-0.537347296863638,-0.580076337223021,-0.790134012925951,-1.10444549461362,-1.41643905078612,-1.62561649898125,-1.67825930983408,-1.58650874256156,-1.41691354853893,-1.25416131530328,-1.15945337185182,-1.143612983261,-1.16656588364589,-1.16372384232074,-1.08609236042212,-0.930531177915981,-0.740731520329988,-0.578124170211202,-0.482090877487932,-0.446174452968108,-0.425000812269294,-0.364174065164183,-0.231909850617059,-0.0350584968446114,0.186208803809752,0.380782002054673,0.514217283211507,0.587037170934303,0.63504696459973,0.712839201952939,0.867929465490566,1.11513837006786,1.42179524818497,1.71269556089413,1.89658767110527,1.90560030570378,1.731420182271,1.44052529616981,1.15608790317133,1.00699769570194,1.06193396480862,1.28009582306514,1.51150615572201,1.56226954599997,1.30207085147014,0.750926406029395,0.0800754388668067,-0.482364846813655,-0.778118079087787,-0.793714007296523,-0.64560781612282,-0.501537463156038,-0.493586037447939,-0.665474172923943,-0.967538067389503,-1.29100937799773,-1.52249631233549,-1.59475659026494,-1.5115307080158,-1.3364541160342,-1.15489267651062,-1.03113691785346,-0.98309280286568,-0.983895989275627,-0.984515720644134,-0.943172393513343,-0.847807743319713,-0.721788785287845,-0.608491831536318,-0.540980281953777,-0.516485345818949,-0.497047065113658,-0.437497228298206,-0.316980684308774,-0.149312791615302,0.0293306470429906,0.180046100990476,0.277779330439498,0.323043330985319,0.344129721504274,0.383807042301756,0.476554208780713,0.632985038911299,0.840388232055815,1.07239822983584,1.29690089777039,1.47960293017836,1.58718380698566,1.59356129080305,1.4907823600667,1.30321840671655,1.09601183915686,0.961091244320961,0.971665968819473,1.12352415594557,1.30763625760535,1.35215033331052,1.12448478174138,0.628181299233611,0.0176606627276344,-0.48973063777903,-0.743626629023001,-0.74040017068817,-0.606179477196701,-0.50934458319839,-0.565726166711892,-0.787979139186393,-1.09599644343438,-1.37168012714066,-1.52248537190111,-1.52132450006849,-1.40893418413959,-1.2631145557683,-1.1521635582912,-1.0987571113496,-1.07677796503564,-1.04037153475853,-0.959357616488546,-0.834449707185862,-0.688514373983188,-0.548808994059148,-0.43330936566399,-0.343770583305707,-0.26520701739135,-0.173660859059033,-0.0512145255420475,0.100055310690095,0.25630494299453,0.387194935036495,0.480125715478502,0.554829762924377,0.653724282949177,0.812785260395217,1.03480379198158,1.28388374135823,1.50095007941912,1.62619526097204,1.61816836516896,1.46956851896347,1.21957782980416,0.953328391985025,0.776924435287151,0.768381322471795,0.923602871939737,1.13157432381076,1.21108495586199,1.00839789289614,0.50229617886297,-0.161747718132478,-0.744436782496221,-1.04815298004679,-1.02477021736684,-0.79145529513058,-0.555711844165722,-0.500694672235728,-0.692812834320944,-1.05588396728958,-1.4221445188614,-1.62947961609576,-1.60703730809055,-1.40053626311491,-1.12984906807987,-0.913402561941441,-0.808026849222365,-0.794763109505109,-0.808205342224172,-0.782948932982662,-0.688101799878652,-0.534479484479294,-0.357138188120625,-0.189694721270735,-0.0493907558918068,0.0604371073907114,0.140914081255822,0.195431381312808,0.236030762937539,0.28735924359703,0.38000371356156,0.536823623959302,0.761361303181786,1.03288343142733,1.30741027642948,1.52513067624838,1.62707950537282,1.57962910378,1.39634921567845,1.14375847385766,0.923928654097276,0.83581476359332,0.925038282425069,1.14282062550452,1.34509467468285,1.3533305360917,1.05795564549197,0.49951034525116,-0.138134751861807,-0.628156921245909,-0.828682289207313,-0.754192783266902,-0.552617410761021,-0.413327096929462,-0.464769809481509,-0.71557683857273,-1.06405386326132,-1.36408838188655,-1.5065297786377,-1.46983629678089,-1.31617680819608,-1.14365949985066,-1.0284999991511,-0.990561035957242,-0.99689866958813,-0.994398445989542,-0.946986021736791,-0.853406798933757,-0.738223349631064,-0.62922579984074,-0.540994463749681,-0.472222023393716,-0.410082494232834,-0.335402716199697,-0.231080539359229,-0.0944628635844564,0.0566413953967666,0.194679868194121,0.303376196664098,0.389462600523881,0.474362391605187,0.576374909884831,0.702282756001057,0.853526520753676,1.03390880300777,1.24434443606003,1.46590615195332,1.6488590233762,1.72616819681973,1.65110767474307,1.43521535106435,1.15816969548795,0.939364731136742,0.882728205122372,1.01705697104348,1.25903330456722,1.42931181015419,1.3371385659407,0.901340288966731,0.225581688574139,-0.44354950324018,-0.86117301857802,-0.929874550313598,-0.743276541924241,-0.508055922519871,-0.413608118750122,-0.539120846676273,-0.839981124118159,-1.19495702969792,-1.4717565870897,-1.58138104539213,-1.50899068294903,-1.31393729007016,-1.09631037839057,-0.943562472710203,-0.887494661865943,-0.898395347193631,-0.916652569285158,-0.895382997174816,-0.824732417103149,-0.727845433296207,-0.638443460711174,-0.576896180706414,-0.5382557201528,-0.497279610619214,-0.425495521028427,-0.309531192737618,-0.160768097000828,-0.0104472387666693,0.108990310874495,0.185490311306169,0.235990190715754,0.295332407113468,0.395036755006243,0.548098728914498,0.747859389591369,0.976072323990613,1.20976820813643,1.42199625284795,1.58076217914777,1.653316279547,1.61798792744421,1.47967286359716,1.28106191542862,1.09866702876308,1.01484086218178,1.07073450755961,1.22507026505146,1.35239800147858,1.29855509122628,0.972803536557824,0.418694102122257,-0.194398023066181,-0.664091369192365,-0.869800352514767,-0.83043198211415,-0.675771866510514,-0.565495564290504,-0.610447897501257,-0.829981984104189,-1.15291902540074,-1.45639563300711,-1.62706047789533,-1.61629497446847,-1.4586263452344,-1.24304585847356,-1.05865848880911,-0.951205319771651,-0.913188471415473,-0.903665197246671,-0.877977926606364,-0.809300351444914,-0.694124431855165,-0.544685390514969,-0.378456840491671,-0.21326906882741,-0.0670872348078484,0.0449251506767069,0.118410874399383,0.165877556010066,0.213421575613421,0.290056845848534,0.417704360015822,0.605477495633182,0.845696261733834,1.11059894349129,1.35340980556016,1.51723710825997,1.55207280798554,1.43749268686798,1.2034423282452,0.934344501557911,0.743159164767782,0.718181950843251,0.866648797159625,1.08996288235922,1.21691866550541,1.09177204693348,0.672436687052278,0.0716441636415537,-0.497051600797968,-0.839297930457594,-0.888090656645496,-0.731572431926677,-0.548068398508003,-0.496502606918287,-0.633740392177623,-0.902190089505847,-1.17952569487294,-1.35075924889364,-1.36328624991388,-1.24178065392878,-1.06076221110315,-0.895010503102668,-0.780122873923308,-0.705252752995905,-0.634734649990288,-0.537541931232277,-0.40572962696023,-0.255784498708951,-0.116200251053161,-0.00902875516779184,0.0641871594473603,0.123606416208527,0.199345054644352,0.31564295049696,0.481455363063515,0.690664424276038,0.925081937869321,1.1522091153583,1.32177186970051,1.37631517368288,1.28270669047499,1.06720270368108,0.82295994574857,0.672404177269784,0.697775147351276,0.879302746176878,1.08502017011952,1.13208216712528,0.893854105793765,0.38743788693277,-0.222089780985791,-0.711868075119766,-0.929307052121773,-0.873942839247275,-0.684037949590983,-0.545497570438543,-0.586758095225119,-0.820178080444008,-1.1509743631551,-1.43555658185993,-1.55538434591109,-1.47369449437145,-1.24943706831741,-1.00019987845803,-0.834127255192408,-0.790106482893267,-0.82015830242251,-0.82424379785904,-0.718016322279196,-0.490217242525021,-0.208380921829965,0.0311508995277587,0.16852898416229,0.212247394272491,0.222065873000227,0.266166661077824,0.386686600899824,0.590935161784919,0.861507286823356,1.16650098290954,1.45910966507458,1.67513230011372,1.74633793584202,1.63517718729868,1.37299621331804,1.07062921983906,0.879320750868204,0.909441686399395,1.14926953129987,1.44212631461945,1.55642120335943,1.32157943282168,0.743752694363289,0.0157488577275363,-0.591452831028946,-0.882100381466251,-0.834348860889203,-0.59182482773789,-0.368891702582989,-0.335539666809501,-0.544312788886743,-0.925231285693565,-1.33564354390601,-1.63095962064878,-1.72265844198604,-1.6050396862658,-1.34941336915274,-1.07219406210029,-0.884893721285324,-0.842318307177795,-0.916641239399214,-1.01791615890002,-1.05106075599117,-0.971306374242101,-0.801730286400305,-0.606128518443093,-0.442207797077161,-0.329478806742456,-0.249424765760217,-0.169208033043858,-0.0665530855384568,0.0596699213792562,0.193979205609211,0.317370062509531,0.4216256315043,0.517011585651682,0.628110508589645,0.780454193462104,0.985959399986184,1.23326615454407,1.48567870513041,1.68826741026489,1.78393792772087,1.73534965595002,1.547446865582,1.28193140980997,1.04913568494366,0.964400054362543,1.07765443936589,1.31776584643724,1.50405983928513,1.44061958240065,1.04227951556069,0.402079214593054,-0.255905631028648,-0.707803640252277,-0.852867213839109,-0.752087160620645,-0.574920638719054,-0.500587908510768,-0.629188344603584,-0.939898281772673,-1.3113290876078,-1.59319247021689,-1.68967397127919,-1.6044922550376,-1.42287554960588,-1.24990336641672,-1.15064136631929,-1.1270377448441,-1.13498277427448,-1.12037209837794,-1.04962382596554,-0.921469659670193,-0.759956704726371,-0.597405656826063,-0.459133178724426,-0.356743124543175,-0.287193574709683,-0.232428427030564,-0.162330162016521,-0.0477838259040719,0.119482105740943,0.315804902222242,0.496011211959594,0.621710527548263,0.688825258231916,0.734370676202985,0.816173443272883,0.977477211447009,1.21706907397554,1.4809096489446,1.68037245816412,1.73107057458243,1.59687936984839,1.31874316680176,1.00973448698613,0.809054879983253,0.809401071959114,0.994772709397842,1.23014670618915,1.32128697300618,1.12199417017039,0.628538693496512,-0.00468832133037398,-0.549104822779377,-0.834075977764016,-0.838012642967316,-0.682016959813952,-0.542445332316051,-0.548188542270605,-0.723263007861596,-0.994992369003761,-1.249062566651,-1.3944114218614,-1.40389932382176,-1.31442992885622,-1.19291410744114,-1.09192585999829,-1.02327521011323,-0.964236420307289,-0.885836448626625,-0.77699122655384,-0.64776368865027,-0.516730709133792,-0.3978433136923,-0.296290462096927,-0.211785470693198,-0.141538919282989,-0.0783345631873316,-0.00803141605623094,0.0860686907827563,0.213026720745988,0.368663497934961,0.541556167552291,0.724308825635537,0.916422357269702,1.11276150707867,1.28723814234901,1.39007057991452,1.3695490386192,1.20991866838342,0.96071606806082,0.731925976224437,0.644994605407829,0.756992742802281,1.00286905655482,1.20592738557887,1.17035191449878,0.807114088200037,0.205962182465669,-0.406597641550608,-0.801755552144428,-0.882585390668199,-0.727263668950759,-0.522676661779511,-0.445758068889208,-0.570770360329946,-0.847369673703229,-1.14676338726843,-1.34114045209762,-1.37084372238764,-1.2642560828895,-1.10444771644822,-0.969224929458536,-0.885503245090374,-0.825277699778345,-0.739508355079045,-0.600614730085464,-0.422285248271518,-0.246282493471023,-0.111188909257169,-0.0279333303657481,0.0237054632650297,0.0820830755376432,0.186654763406295,0.363267819795749,0.612567808241325,0.905097190458851,1.18737444722053,1.39675059829242,1.47992971917743,1.41397894340793,1.22668462588694,1.00200013942479,0.853611909047475,0.867997976281979,1.0451682108254,1.27712015665104,1.38952041877138,1.23580077627117,0.792221850229863,0.187703255964149,-0.362072833615659,-0.677417594432499,-0.711181107631944,-0.559301701437548,-0.391983497081228,-0.359144873153993,-0.521745197446292,-0.833032738523645,-1.17092531799096,-1.40538703564108,-1.46614890514567,-1.37131961708998,-1.20205972866471,-1.04630395217837,-0.952011847314702,-0.915797147939135,-0.903555178762495,-0.880431651366702,-0.829301690560119,-0.75185803618841,-0.658385086719362,-0.55546170119416,-0.440385276181264,-0.307624155177414,-0.161896458408908,-0.0225903077257449,0.0887149456870307,0.16600914542271,0.223488986629123,0.284676923406659,0.369736207967862,0.490867733809521,0.652429197526023,0.849440556269387,1.06540834714083,1.27428687171469,1.44657794615442,1.55434915933996,1.5732999396113,1.48833805762478,1.30901042012274,1.08693224930851,0.912901473690746,0.877647006882278,1.00966186497477,1.23234402671591,1.38184628366225,1.29040559608873,0.890663672439556,0.271800498747792,-0.357129539413654,-0.779318923563521,-0.887463596476913,-0.734106167186378,-0.490999796370042,-0.350333512179908,-0.427390088010578,-0.71270076310069,-1.08991651084893,-1.4042528077987,-1.54470410528607,-1.49551213661668,-1.32786305736751,-1.14194854397153,-1.00504574686626,-0.928636263371195,-0.888825259168333,-0.859662994379501,-0.829556885546042,-0.796710278899385,-0.758900841581541,-0.71060844685054,-0.647101839734099,-0.567818745297225,-0.475292861268704,-0.372781245893997,-0.264308964151301,-0.155807905701359,-0.053511619514917,0.0404991125548362,0.13061383856725,0.223556850515781,0.320849226301602,0.416440523286091,0.503170365737683,0.581680009924849,0.66336554332264,0.765964565738893,0.905387300661565,1.08605484647106,1.29107626372203,1.47758814642874,1.58592605615048,1.56571916880774,1.40831516166946,1.16509320717037,0.935750406012205,0.826143086410831,0.890867463437167,1.08748410029138,1.27484072433349,1.27451990490366,0.974431049865901,0.411393061277882,-0.231336403219323,-0.721394410674121,-0.90951177936892,-0.809958275061184,-0.580673605002121,-0.423526439055747,-0.471939031733246,-0.730683995545618,-1.09223385110355,-1.40738181741788,-1.56354839697141,-1.53075103041336,-1.35997572228691,-1.14392717542136,-0.966233442092264,-0.867253896550846,-0.840238600603598,-0.849899662677075,-0.855025212542155,-0.823943695777624,-0.742697398488582,-0.617740938648033,-0.471760971758583,-0.332358530664908,-0.218743092162619,-0.134167701450459,-0.0678299973411902,-0.00295309615469958,0.0751067674968719,0.173532960699829,0.289192386560838,0.40990034492889,0.522716528135758,0.626048004173842,0.734842019995104,0.870970912690016,1.04348429222434,1.23284098836488,1.3911753447153,1.4609492752677,1.40428651290927,1.2286956412965,0.994449983648526,0.795924014039773,0.720207465770216,0.797213035692728,0.965869781861721,1.08557369204891,1.00520481500626,0.659185317737677,0.123678973746803,-0.417370111284902,-0.778693542974869,-0.877920773745488,-0.769822996115221,-0.599464270138292,-0.515088704600479,-0.594804903643958,-0.82041063084743,-1.10067877668263,-1.32421548766711,-1.41366909027054,-1.35613216131509,-1.19783916394735,-1.01123897763022,-0.857238014692607,-0.76316394938367,-0.721412633608876,-0.701033693419519,-0.663830459532879,-0.580977771200224,-0.446231778440493,-0.279360799308801,-0.116205617278685,0.00980872469153628,0.0840143919610727,0.116718704287298,0.138765786493003,0.189883039765423,0.302985056858482,0.489161540847225,0.73120014078575,0.990121939730936,1.21937607394627,1.37723799555049,1.43477306095005,1.38320378030054,1.24136781709372,1.05786430320762,0.90220878950184,0.842381799359955,0.910249033105904,1.06771183723967,1.20183941481201,1.17267357817966,0.898471928601154,0.419907915919746,-0.111702824513267,-0.519448245801091,-0.6986489583041,-0.663357745648509,-0.523071952335398,-0.417237978562371,-0.447828620537728,-0.637416803204777,-0.924838124101838,-1.19906113999795,-1.35712319896021,-1.3565688372233,-1.23213323960194,-1.0675432118601,-0.942285144687802,-0.888139004530092,-0.881681823745991,-0.873615627595712,-0.829737773371979,-0.751032169561145,-0.66077625220277,-0.577207041262459,-0.50001704458596,-0.419391516946491,-0.331594502790967,-0.241807683395395,-0.15312110691138,-0.0577201352757045,0.0564193837063889,0.188784448422466,0.318929563742239,0.420751427724195,0.488284008410654,0.548619858781069,0.647898649526308,0.820386617980221,1.06322371334135,1.3312626584118,1.55172117940297,1.65163817300259,1.59018775212652,1.38470494132401,1.1159858393952,0.9030950911836,0.851037728814619,0.989979742558509,1.23756678366776,1.41845478136771,1.35142047569971,0.963308331822215,0.350414638409068,-0.267723908541146,-0.676470951516741,-0.786157347348016,-0.666199135635603,-0.48532571362363,-0.410378581065906,-0.526300527375411,-0.811020758335666,-1.1629109836669,-1.45649884674397,-1.59803533270917,-1.56019458632692,-1.38677616681528,-1.16873737518509,-1.00152882638537,-0.941552337752728,-0.982726528143723,-1.065541933022,-1.11269257165412,-1.07058619040953,-0.934792028931227,-0.74818237171014,-0.575329300564014,-0.467934850032429,-0.438882527801141,-0.456810718747911,-0.462839151297876,-0.401024656725506,-0.247868304582597,-0.0259720355800292,0.206243631514319,0.384654883060387,0.473641936263147,0.485390137357236,0.473847345051814,0.508026046285548,0.640043863001275,0.882601729768873,1.20240665801868,1.52934729389663,1.77861866703978,1.88022452974641,1.80647553065942,1.5879269198218,1.31181300772438,1.09881199098315,1.05617302920323,1.21812494143048,1.50496869672757,1.73812848269668,1.7227468258094,1.36169483959777,0.728790833386367,0.0416486471554,-0.458804558663628,-0.643032797233375,-0.551554052142962,-0.349160508178601,-0.221240561581733,-0.282468891292869,-0.538788075494302,-0.904544347952519,-1.25495799983506,-1.48577424876764,-1.55232997155682,-1.4737025202689,-1.30907693923041,-1.12694179421806,-0.984095122153081,-0.916669340262551,-0.934263649317757,-1.01272360146719,-1.09590265779056,-1.11953302182038,-1.0495218951446,-0.904712238155802,-0.741960150802206,-0.615210290732132,-0.542639155079064,-0.504670534272105,-0.467333312586224,-0.408250803081898,-0.32639529729786,-0.232672361753079,-0.132545612098582,-0.0157348840907009,0.138923042154392,0.347410946372676,0.605385459709133,0.884065287533531,1.13818862775215,1.32019296834045,1.39454310739035,1.34954609455654,1.2081129395982,1.03585843976337,0.933404794738836,1.00665080609324,1.31947005177399,1.83019732402259,2.35539065152081,2.60618739111513,2.28976601082735,1.27595394672162,-0.292226363343728,-1.87635823476369,-2.22858732131189,-0.215924850463002,2.78787271233283
