-3.07276566012289,-2.01772073375296,-1.64243716217935,-1.79185052839213,-1.91193777715904,-1.87366027453807,-1.75653723743397,-1.62125234609062,-1.51265359918671,-1.4439769761569,-1.40499077243707,-1.38653325848963,-1.38606173761812,-1.40751966881194,-1.45394351975106,-1.52037067315103,-1.59215187922318,-1.64221457355753,-1.62828235943299,-1.49522946004766,-1.18880940498708,-0.6839251783168,-0.0178752303411403,0.692796710982938,1.27328813422274,1.55394153721602,1.45133589383733,1.02056387415268,0.441259649842488,-0.0596668973993645,-0.304392277782448,-0.226888924956248,0.123503655965846,0.626205497278002,1.14919033407656,1.59465688881353,1.91656536603773,2.11267711561033,2.20349491413958,2.21175772044603,2.15139018411628,2.02810372345464,1.84793359200775,1.62605852496004,1.38845731200552,1.16462824124811,0.976638972028463,0.831949991923746,0.723771032392699,0.637057215941246,0.554620200610629,0.45895407054728,0.331088547647653,0.152584178038406,-0.0853378627357003,-0.368890553152214,-0.653479136347331,-0.867485117023112,-0.93020773109717,-0.779906573766053,-0.403358913385011,0.143128244107327,0.731449713019595,1.18785058257925,1.34971267944659,1.13590570247901,0.594120856338417,-0.108398731215155,-0.752197014349063,-1.15457335640767,-1.23181428106498,-1.00839442622916,-0.581868602542404,-0.0729922437065101,0.412649198839919,0.801779471579398,1.05345950107839,1.15148224184995,1.0981712649855,0.913661675838898,0.636873564929334,0.320847576688394,0.0205716318315378,-0.220800604760877,-0.380651557924157,-0.459226542693949,-0.477953430030965,-0.474473091154784,-0.492321578091605,-0.565025675244799,-0.700214148405775,-0.871987052731706,-1.02513223300651,-1.08859606154922,-0.995034739639233,-0.705799007846078,-0.238220232666989,0.316995745105236,0.80683237308182,1.06529712780397,0.985866694456236,0.578688907455301,-0.0239664990269136,-0.620602579542949,-1.02323151508635,-1.12694903751194,-0.93520389782645,-0.535745802281811,-0.047697762713044,0.42727756136273,0.825385330836559,1.11285105434948,1.26976195645275,1.28451657044959,1.16158396662618,0.931350596703286,0.649142186070127,0.379236000769016,0.171423750761309,0.0437875488170701,-0.0190954405822141,-0.0540113511145155,-0.101654771693109,-0.191362995471954,-0.330322803258545,-0.496800560496583,-0.638987528117677,-0.684486325049913,-0.564583858596907,-0.249810709282466,0.217469279767097,0.714129822365338,1.06682325889951,1.11924247821102,0.808168176462252,0.205730422757913,-0.502287344685045,-1.09500772778146,-1.40864813635686,-1.39287374014835,-1.1086674480541,-0.680868425098404,-0.238309253416794,0.12806011579015,0.375584872300052,0.495299544456525,0.490861840649594,0.367720105875575,0.136889579214794,-0.174665902664404,-0.519252525215403,-0.836658858306255,-1.07360083267673,-1.20510269577794,-1.24663349664796,-1.24976289414024,-1.28094322289599,-1.38989425827333,-1.57966952097782,-1.79296414866615,-1.92535807619482,-1.86527631034513,-1.54715557783387,-0.995565987269035,-0.337945733885167,0.227355240975955,0.503736851085456,0.383279302221309,-0.0953693390461367,-0.755152671316141,-1.35641772162289,-1.69980481219206,-1.70033340687948,-1.39873044478312,-0.9155664226994,-0.382769307700196,0.108984420199413,0.524922871359335,0.866026318097444,1.13737197723241,1.32980538465622,1.42426448066808,1.41173880268707,1.31024869572566,1.16240325129399,1.01958982258371,0.920145723978926,0.877560640864274,0.901604383820767,0.999067686228637,1.15329992028343,1.32332996404868,1.39696704043687,1.27515099103367,0.948194712988577,0.438615854411147,0.731838599289919,3.40680598354122,6.27839076829415,4.23239994226473,-1.44560713060669,-3.53910130781997,-0.728707460366329,1.90182056777066,2.16800775128779,1.62521137629587,1.23053707814043,0.990988770725706,0.900528798161101,0.873077523362271,0.809917838623745,0.682771669670207,0.495228040288468,0.308417312346623,0.195443480446247,0.180316098059487,0.237050225550462,0.226721877821656,0.00461252833253612,-0.473933021616802,-1.21622539748757,-1.00721036452839,2.21031847367417,5.8646738778876,3.48239184420491,-3.71945055819957,-6.83115861380787,-3.76355530046576,-0.505351869173467,0.0890446738628359,-0.303496410127125,-0.591683583435168,-0.773771141098982,-0.848330947038949,-0.900100023668495,-1.01989539108867,-1.19994479280763,-1.3915083015819,-1.52389091785945,-1.56016802996186,-1.52124877626393,-1.45755176916631,-1.42894145076098,-1.48137424170868,-1.62521338938354,-1.82517167244175,-1.99918421220333,-2.03640713992427,-1.83713990693466,-1.36197859477233,-0.668999066443074,0.0834019627065411,0.67912305018564,0.923692410086536,0.730779956997599,0.172529706401237,-0.540770898479184,-1.14747758181014,-1.4411499306841,-1.34020195520938,-0.893257362717262,-0.233668755037311,0.482167100198841,1.12281148621904,1.60342538310292,1.8846328726362,1.96090686301876,1.85009373030995,1.58891978011579,1.23226955664315,0.849994004186457,0.515529141659691,0.286883971297699,0.189263988623221,0.21090619172686,0.314808237080715,0.456621790278804,0.596388912508586,0.701194075732361,0.744691796349027,0.708360630826717,0.583837223739987,0.37459480080236,0.0971004959170803,-0.218678388263504,-0.530581268204577,-0.787243372834383,-0.931502427566876,-0.905837017051303,-0.665674515212293,-0.204233840350585,0.41876828295689,1.06461158802327,1.54010878114572,1.66332305607302,1.34693264085733,0.654632501551183,-0.208553244644204,-0.975129715589115,-1.42313831493983,-1.45647907611027,-1.12135688682115,-0.561696980238867,0.0537030291301004,0.59275556042294,0.985052980552924,1.20951230959341,1.26565215443241,1.15525664792314,0.887025946384926,0.494379294155467,0.0451862283339501,-0.369775682694798,-0.665309341963729,-0.791610015154664,-0.750772101888124,-0.593706915494598,-0.400049152603952,-0.249982140572768,-0.199646678175657,-0.26896592227679,-0.442368821985694,-0.675362220015114,-0.900964857975442,-1.03805876725728,-1.00815725375362,-0.761758762693585,-0.305550933268152,0.283549262557168,0.868226003420853,1.28615730328463,1.40290701108196,1.16572541327048,0.635349765494841,-0.0249802656683688,-0.606483702664549,-0.934348618330954,-0.930948846507735,-0.633286938550381,-0.161696175518371,0.338590525073938,0.751854206033071,1.01864866843602,1.130113477783,1.10411236518623,0.964591756371636,0.736503673095162,0.45213573417798,0.155357336993345,-0.105201054994157,-0.291519683401913,-0.390356929452876,-0.417655676565864,-0.410880825535506,-0.413586398267722,-0.460133642403174,-0.566983071394765,-0.731357213873038,-0.933080844121931,-1.13548387640846,-1.28612207725966,-1.32288725354223,-1.19077049771123,-0.868215869221907,-0.393139717421466,0.127884345050717,0.542700152479709,0.710192716658747,0.567373906734837,0.167508568030247,-0.338290050287261,-0.767446642190319,-0.98128599720692,-0.930290961458676,-0.654809888677932,-0.251829427116548,0.171030672665108,0.534419387877552,0.805191952337926,0.989176141538794,1.10741268109101,1.17336399555954,1.18529115609669,1.134829881772,1.02123598610606,0.859489120001856,0.677928284846906,0.509089798848692,0.379982965382691,0.305968781489608,0.289243997007902,0.320358994084392,0.380294088135737,0.442464935399502,0.476551667851247,0.455900141138646,0.36736229133335,0.219434528620265,0.0439772955860197,-0.109360532057451,-0.182788243674731,-0.122539721439621,0.105375205387218,0.495949141930078,0.987663170696461,1.46050524380015,1.76509644293867,1.77991462574705,1.4733746292224,0.937213770858855,0.354518632990597,-0.0788010417438809,-0.238880400214407,-0.151267654459171,0.0409497065690129,0.190285052398509,0.222579485681304,0.264015923475425,0.495788599093396,0.981566945723105,1.72146189512652,0.949629664355292,-4.281751120796,-10.1660810374136,-7.1219452563042,3.34200558363034,8.20383731514818,3.8728179228412,-1.32732365057424,-3.00677440508179,-3.15543225030709,-3.15672178038516,-3.03974343759473,-2.92486045260729,-2.8191774407213,-2.66916637797872,-2.48652925159262,-2.28385854999204,-2.0932326331187,-1.93571106981726,-1.8102413829862,-1.72033806522367,-1.66261438529661,-1.6145208009199,-1.53215094345283,-1.35346191407344,-1.01809064102447,-0.496457209344187,0.18151849265574,0.912202814462494,1.53835977328977,1.90697576566098,1.94022036619812,1.67874970971284,1.26765534560366,0.891274487129088,0.696305979366135,0.744354486417735,1.00929396367098,1.40723184303405,1.83649589404344,2.21137195625863,2.48234892966178,2.63976096290348,2.70143427930543,2.69187636784231,2.62544250640674,2.50286533447804,2.32085998399838,2.08534633238408,1.81731105202592,1.54744365214781,1.30448475852532,1.10504613730908,0.949363202324372,0.823216553604721,0.704331831449133,0.571191018298881,0.411492423816338,0.226438020733604,0.0278094540154518,-0.170936333834854,-0.36315671135117,-0.550451889110015,-0.737021566990671,-0.923987658060672,-1.10964629476871,-1.29312715795615,-1.47343478783722,-1.64069236089948,-1.76644804917007,-1.80387373032709,-1.70298195381407,-1.43681327654249,-1.02784604171545,-0.560507685326131,-0.166658185475972,0.019539761147283,-0.0776755712283142,-0.431169181375133,-0.912400980242797,-1.34340159972548,-1.57222587752747,-1.53117051745943,-1.24997437089492,-0.824348117028966,-0.363942016836137,0.050201640090837,0.380764063141561,0.622973454634057,0.78189759038745,0.856004946719653,0.838187824994885,0.731817771849802,0.565822611341,0.391519728472973,0.259628853196177,0.194668286177298,0.186589062358415,0.204118723834292,0.217219866183109,0.212064455012602,0.190960853803587,0.161649734078141,0.126107180348809,0.0764596847934848,-0.000802276821124522,-0.116155434595134,-0.26922354965557,-0.445179614216976,-0.614972762082645,-0.73711269148092,-0.761706178737678,-0.641741009891054,-0.354768742644563,0.0714776800930983,0.54582472448762,0.929419435061519,1.0840625272523,0.935170066366167,0.515483730606556,-0.0395816932824656,-0.546988761124321,-0.852568441655096,-0.888453471594756,-0.685371171592909,-0.340901005580757,0.0330355055715249,0.3537800474182,0.583729762925904,0.719300026557279,0.769329327078769,0.740665938622353,0.638352044929934,0.47507665082531,0.278267693157368,0.0867317298068138,-0.0619133185883268,-0.145149948232945,-0.1636785437948,-0.14105557897724,-0.115148738444435,-0.123763155661115,-0.190172827171421,-0.315841544656409,-0.483149054552921,-0.663635032309031,-0.824434108532345,-0.929478070912961,-0.938961275913799,-0.814967245736143,-0.538348343792545,-0.131884276274402,0.325400671324418,0.708980689360333,0.889789019377323,0.792027874129142,0.438680641569461,-0.0451516309827711,-0.480506236331516,-0.711943583384834,-0.671364865571897,-0.394314109093445,0.0135257309577216,0.432444377482548,0.773759839402519,0.996165483761779,1.09723060791307,1.09508094950643,1.01310003161479,0.872802985488285,0.694428746111158,0.501592232410275,0.323832776508641,0.191777595685816,0.125832354255847,0.125517360460126,0.166299035624761,0.205229595337979,0.192362422072421,0.0848589440627514,-0.13800980608189,-0.462096582042372,-0.833959659337084,-1.17038773220417,-1.3810845472109,-1.39594006246697,-1.18606498815421,-0.773061330018354,-0.228238332711569,0.33510791843343,0.778554582704175,0.97054445772355,0.832818278387271,0.384577567086121,-0.244168354979472,-0.850328832039586,-1.2369717675422,-1.29407793907023,-1.03666341297083,-0.583254033454584,-0.0930755436872421,0.302169911084531,0.54156846583121,0.639951547504858,0.659364336120832,0.665882073833272,0.69507535071905,0.741430760289837,0.771627708054714,0.74886263365704,0.652836328465452,0.487120909538744,0.275001794928041,0.0496946695164803,-0.155479255275874,-0.313883373897771,-0.408977978894137,-0.435642376635141,-0.400310461613913,-0.319707043217562,-0.218160848783564,-0.124349666599151,-0.0679547063949178,-0.0757095621174987,-0.166620214614718,-0.346824449819807,-0.603961270380826,-0.900852566149917,-1.17143561635275,-1.32615089226135,-1.27362674178728,-0.957508062119501,-0.395291957385506,0.302010367919271,0.948052231700353,1.34103937426632,1.34636520625416,0.963347212026063,0.336463579512278,-0.302237998023535,-0.731908855695557,-0.82971717323318,-0.603429273088434,-0.163761430153032,0.337751688441299,0.770647397936846,1.06235585882465,1.20194408188337,1.21863039165675,1.15284751991801,1.03694690797872,0.891706068416092,0.732631674788015,0.576155931666669,0.440016837764146,0.337867076406051,0.272235401991342,0.23196180467834,0.197810309033932,0.153014121236264,0.0906498145212021,0.0128722842869378,-0.0752367382149858,-0.17032790251399,-0.269846452008367,-0.367753821492703,-0.453173177029049,-0.515711628956891,-0.554185555994173,-0.581386491507826,-0.620557091654839,-0.695146887840117,-0.816207734671272,-0.971345762239356,-1.11892853426077,-1.19225865528376,-1.11793817186293,-0.847384012714198,-0.391041370820367,0.162629186084776,0.659863208376734,0.930185088980192,0.856092574858199,0.432454472834922,-0.217596615618539,-0.883683601736547,-1.34819037212695,-1.46675901142267,-1.21406064138271,-0.680046887166011,-0.0248114986909461,0.584015978291243,1.02367111015196,1.24060017772363,1.24594413973049,1.09386250315217,0.856496797645816,0.6043141463436,0.39368673188169,0.258965690438294,0.207090282442218,0.217305557075818,0.250247749762829,0.265769479200426,0.24144381932659,0.181170245501704,0.109040845659676,0.0531625705471214,0.0295025901474633,0.033781977809211,0.0434504795438238,0.02682657857583,-0.0449660780536037,-0.186328344570854,-0.387724174084032,-0.611180735796218,-0.794233979289554,-0.864059188709395,-0.760342754423652,-0.462359931602424,-0.0116004091837937,0.48328885074607,0.871322685244343,1.0132410293551,0.844329035294677,0.412390152456947,-0.135254549392533,-0.61388418800414,-0.880120264400018,-0.884609751932081,-0.674175931427204,-0.350754134184021,-0.0165833434873246,0.263966726821151,0.471234912635571,0.611341204620529,0.690592827676,0.702454753443493,0.634216035638044,0.485089383154882,0.279680380002779,0.0654629683920955,-0.104756763175646,-0.194606185930507,-0.198430756710258,-0.142281820421685,-0.0724805339732786,-0.0370011997780134,-0.0674215642050938,-0.169252401340002,-0.324147257182723,-0.50046634509625,-0.66426907833482,-0.784203393400808,-0.829770668551549,-0.76937233082336,-0.576897476191113,-0.249478576768069,0.172101700612443,0.596019234936316,0.898049494039892,0.967244165962316,0.761932859611832,0.344381548707887,-0.134689073806894,-0.501772300698208,-0.639714201936031,-0.532441219543365,-0.253522504504758,0.0848850576969009,0.387446480796569,0.607446053718153,0.746098360090297,0.828185161585436,0.873142064878278,0.880052892653958,0.833414888735153,0.721662623168086,0.553090223697457,0.358155687490268,0.177453730366125,0.0427573801573373,-0.0382442396638895,-0.0840902656536169,-0.126005604921943,-0.187117005350914,-0.269253134292591,-0.356337763400037,-0.4301149697679,-0.485574940652916,-0.535740171345814,-0.603896224389086,-0.709077399324736,-0.853772946023699,-1.02000688272442,-1.17325597202589,-1.2692877769382,-1.26135938603522,-1.11073936746655,-0.804035450425751,-0.373357396291677,0.0940222061934833,0.471575262888414,0.638824883387214,0.539387148852892,0.218894999603833,-0.185761569922714,-0.506504072932349,-0.620997192752013,-0.502321068542048,-0.21631332259646,0.124924134404199,0.421770773405647,0.626301158663245,0.747172830948387,0.825681533920989,0.901493617188766,0.988345377218175,1.07108333561311,1.12089829712726,1.11508022006271,1.04842373764257,0.932800781636385,0.789650776393377,0.641533296158426,0.506059497796573,0.393093799229892,0.304899333046788,0.237819734225829,0.183989827728704,0.133253889148958,0.0763729323567654,0.00850852000376398,-0.0699149538838109,-0.155669513523228,-0.245624255935487,-0.337483592906762,-0.42922612797354,-0.519632223671649,-0.610043281215828,-0.705068897151853,-0.810764930327305,-0.930936151605891,-1.06200843148192,-1.1862715033845,-1.26666346259168,-1.25077801228839,-1.08941297127496,-0.764946715388559,-0.315431769969834,0.16116166184452,0.531044822539382,0.673095547047664,0.53373765584401,0.160596475536433,-0.308365214796674,-0.700563386938666,-0.880981795034219,-0.802095208075539,-0.509620848893076,-0.10929911755068,0.283560465167591,0.588010971639274,0.777468050949876,0.870662617323939,0.904236260727294,0.906959108800351,0.889802944283959,0.851240159894174,0.787609624690618,0.700123112091564,0.596576358483613,0.489528695907197,0.392971838715392,0.318836008334413,0.273908629097145,0.257221991994885,0.258659483547838,0.260588375334425,0.243404284871861,0.193033901404241,0.106461294519359,-0.00800661884063328,-0.136137054167105,-0.265508985243832,-0.390345971109294,-0.510587080437285,-0.627144523846265,-0.73713775641297,-0.83053607666794,-0.887942369811073,-0.881078413690596,-0.779324186378601,-0.563695358555729,-0.244942432516967,0.12260586225847,0.443304835051498,0.607575101522751,0.53976319550726,0.243158353306603,-0.187995369422944,-0.603055071437018,-0.859484384087339,-0.881333607684552,-0.681689749104784,-0.342784705177214,0.0292798333681753,0.348407621478792,0.57082756126285,0.692418964761299,0.731936810442759,0.713795497509395,0.657621197171522,0.575286738975337,0.473648556161696,0.359864050725756,0.244833243030263,0.141855289633626,0.0620166238739158,0.010459762756109,-0.014165568494416,-0.0182982156804968,-0.0124367053249929,-0.0108554710076602,-0.0302300660713688,-0.0855695852719483,-0.184309072253503,-0.321411355892234,-0.477685502647299,-0.621185101300694,-0.710582585294922,-0.701128730493095,-0.555998091155389,-0.26484084970104,0.135041860953757,0.548869653368311,0.843041063215233,0.896688691318323,0.665046582756186,0.215291291114683,-0.294588926584487,-0.686873308264276,-0.843306101207636,-0.746889359904749,-0.469237984053861,-0.121150604539341,0.199890071862698,0.438941257170034,0.583327296533277,0.64474080862496,0.640994510701071,0.587272786945839,0.495989745893987,0.379557690292303,0.252261447433147,0.130303332737619,0.0293119756243546,-0.0411547160684663,-0.0833744831363837,-0.111954251180317,-0.146523038628154,-0.201275359232925,-0.279292354065824,-0.374678463405523,-0.477930949203521,-0.577969454805178,-0.659072928579908,-0.696799309706268,-0.658986401014846,-0.515771874614142,-0.257577988316262,0.0863060563211844,0.440626402180881,0.699567527220578,0.766164116335373,0.601304474910349,0.254563752980402,-0.147974710882505,-0.458991249133696,-0.577602928112004,-0.489134098351532,-0.257304396025566,0.0193673723294902,0.257628121236904,0.420126451479454,0.516285168097821,0.579644237376385,0.638086396153101,0.693951229811168,0.723323070110886,0.692497330007448,0.580596258974087,0.3949163824769,0.170708848225627,-0.043527612626792,-0.20610397347638,-0.296591917998286,-0.319011412516442,-0.295791699998781,-0.25826286830621,-0.237777898591366,-0.258637886709994,-0.333244468310186,-0.460239149639594,-0.625320441091325,-0.802768618839755,-0.956477446617554,-1.04237476153495,-1.01568060476094,-0.844474494851961,-0.527207003254759,-0.107697291533393,0.322289751893545,0.642336065009621,0.745487688330921,0.58864222864793,0.223710313846085,-0.214706678619346,-0.565452672641854,-0.711351709998039,-0.623743271253736,-0.358569921597795,-0.0136791072873687,0.321559616393138,0.595641988261265,0.794727498166838,0.924671007584874,0.993826264347675,1.00719417214337,0.970091348437907,0.893304407283216,0.793792545929197,0.690349273681856,0.597347517729251,0.520532848366504,0.457273584747518,0.400626312146929,0.344060251527556,0.283793826290064,0.218130839991688,0.145450918112113,0.0629327068908205,-0.0327340288639066,-0.142569421967026,-0.262018680408282,-0.38001645415589,-0.48226519389075,-0.557592318865925,-0.604044202787284,-0.631488627902885,-0.659231037712295,-0.709365769713882,-0.797895117947107,-0.925485892555228,-1.06997274367101,-1.1845643889153,-1.20654278088715,-1.07827147409172,-0.776126170292576,-0.335810285961997,0.14186748789985,0.51653856450358,0.661861016886609,0.52474739040421,0.15799905695559,-0.296078027054648,-0.666236262352188,-0.82489296056657,-0.734154989476204,-0.445756659508722,-0.0636998106933511,0.30516680524841,0.589251468193772,0.76711716622898,0.858745493814408,0.901711312430275,0.926584614360357,0.944597117706262,0.95100643923044,0.936629517975312,0.896900464914966,0.833651430584184,0.752191071524306,0.658432758425624,0.558145862719039,0.457285618413126,0.361579651663145,0.27497952664506,0.198427858528179,0.130340309151624,0.0680396040908599,0.00821138356963057,-0.0536900946636574,-0.123092720021951,-0.204090701945062,-0.297132754516951,-0.399034284938912,-0.505740325693158,-0.615758630844166,-0.731053522326021,-0.853035404275037,-0.973833871518736,-1.06704873052916,-1.08628792862011,-0.979344562553984,-0.717025083665004,-0.323198716418459,0.113324949839152,0.459168418787749,0.588015872262595,0.442218090444801,0.0692198710076904,-0.393756463200328,-0.781357857931298,-0.971457815571255,-0.926310330989428,-0.688519072873292,-0.345272557787958,0.014202433055587,0.327980825281304,0.569179375335294,0.735819288705697,0.834642339447039,0.870369742981847,0.844811602738972,0.763108994749816,0.640803849110745,0.505357230168942,0.389325124059253,0.318180799185682,0.299540513949478,0.31984441509234,0.350585306721565,0.361162230594993,0.33174108236993,0.25981108852666,0.15841490801161,0.0484527226040696,-0.0510359917868544,-0.131131800972219,-0.196769002449529,-0.263748449044611,-0.349450633377526,-0.461142681735619,-0.587352024346041,-0.696166950096459,-0.741484335986959,-0.676617244391148,-0.473643902408813,-0.143942510204758,0.249281966651736,0.597816923047273,0.780761735306935,0.71503673413355,0.401113493950625,-0.0645373473355594,-0.524407650336648,-0.827435072131238,-0.891724018993115,-0.72856958397577,-0.420290710071839,-0.071997262550501,0.232989982981943,0.454030218040487,0.587893584677593,0.64894109112905,0.650727056001484,0.599014171736777,0.495852513140224,0.348124074022513,0.173935359648301,0.00243736554476332,-0.134384494365495,-0.214258780276043,-0.233716182874134,-0.208321512584216,-0.16552919212521,-0.135292815948888,-0.141799388036353,-0.197438465726607,-0.300239018348225,-0.435678989695128,-0.581024943874302,-0.708559804365591,-0.786550555129457,-0.781040380315841,-0.662643019500151,-0.419671021759946,-0.0741943111477814,0.30788251232415,0.625039908002227,0.773460023920848,0.695451051228126,0.416074884519322,0.0413131060793285,-0.286766793501665,-0.453809816479313,-0.419434184293364,-0.222433652992241,0.0517048738599439,0.317473871319529,0.524599302362393,0.667625462124399,0.770124678376049,0.855935510321727,0.926471557156754,0.959106470512339,0.926147882856413,0.818289822834101,0.654699324059595,0.474255807221381,0.316070941814803,0.202035536263944,0.130202458217526,0.080766789782124,0.029970816598236,-0.0366414982539161,-0.119418482438102,-0.209934268356323,-0.300714920642626,-0.391108456389348,-0.485372895673567,-0.586009327976572,-0.689428416699262,-0.789042251712478,-0.883282033554017,-0.978953815731534,-1.08254787292026,-1.18406488984249,-1.24763659399692,-1.21982774024107,-1.05375915025066,-0.737293023916126,-0.312047718424454,0.126706659979007,0.45475712273636,0.565697494877465,0.422801958765744,0.086412254041736,-0.30661347150849,-0.605054796666633,-0.710152701357382,-0.608120825162432,-0.35689826101073,-0.0452896401757074,0.248628409849616,0.482718218894873,0.655191623321279,0.791348477899512,0.920745879864635,1.05686847961273,1.18962305435524,1.29205721549113,1.3345219056006,1.29865643579129,1.18629080532693,1.01971567565419,0.832454007895096,0.65559348341066,0.508136922186743,0.395945392105445,0.316523863128295,0.263401812490065,0.226959005950862,0.194122535283683,0.150701945358218,0.0862071507062297,-0.00227365212302112,-0.109508996809224,-0.224843057119434,-0.33710467800753,-0.439768116675128,-0.533841545493538,-0.627394668181124,-0.732528614872273,-0.860138689295948,-1.01230352150215,-1.17502428850828,-1.31694352370804,-1.3969228947001,-1.37701075713604,-1.23445475805432,-0.969152024572567,-0.607335325549533,-0.203694660842476,0.159841691964064,0.386937777104389,0.398839292265266,0.178030429522777,-0.203454620730939,-0.599661527692524,-0.852493445951178,-0.866025188465913,-0.646745367865545,-0.286508015096229,0.095243334949162,0.410383801973057,0.630102984489692,0.775068338442291,0.883001435928455,0.97728602503582,1.05439379853141,1.09312829832816,1.07438188839091,0.996082464260191,0.875703350390072,0.742800660899428,0.627555103368853,0.549690722815851,0.511387283582565,0.497660014668619,0.484311281770654,0.448636049779243,0.377222496423388,0.269003567836195,0.134798943139822,-0.00602390900079314,-0.132090337326733,-0.228164811607773,-0.291034718881043,-0.330384162292647,-0.365192125939056,-0.417613715021362,-0.505154678380796,-0.631438712007405,-0.778074305264986,-0.902705750730667,-0.947658088898759,-0.859421082937192,-0.613985619416266,-0.238560204244631,0.182068445649141,0.523756772265693,0.665857517418656,0.544521702296706,0.189967927471193,-0.277569007023618,-0.697253884090554,-0.936902570406454,-0.943334012927674,-0.749757302561569,-0.444155247439827,-0.121958856628191,0.151357752462643,0.352418440497722,0.48731039986851,0.568396071803021,0.598536652854665,0.571961556403555,0.486868201842003,0.356697990992316,0.210269022899593,0.0807009949022764,-0.00930172064445348,-0.0569865730794684,-0.0788359848578744,-0.100091477233577,-0.140107396419544,-0.201997306660799,-0.273422376942932,-0.338233409400066,-0.390070427832782,-0.4370012614083,-0.494036148672505,-0.570449796039465,-0.661107159250005,-0.744932502291475,-0.788051556473819,-0.75000681428263,-0.595329705770259,-0.312222758874508,0.0671703334952601,0.458696590275632,0.74421911024367,0.817022378381677,0.635930678435866,0.256290146649104,-0.186316732816481,-0.535125144871146,-0.680362192187732,-0.598019257889848,-0.343452082616286,-0.0127778370084328,0.302338849182005,0.546154936438897,0.707460655066723,0.806354791761752,0.869338695698131,0.908359046229868,0.915651071239609,0.874594688367759,0.776623431130649,0.632431813826098,0.471141865185452,0.328705399278394,0.232461499126328,0.189941369235904,0.186746521278177,0.193687028086851,0.180133567036424,0.12817680856194,0.0403768903708421,-0.0638943024587435,-0.16084836846574,-0.234341086043611,-0.280622498741033,-0.306367775915971,-0.324524775261752,-0.350155220056883,-0.395468494467375,-0.464097349406142,-0.546553206036731,-0.617914865254059,-0.637947684715709,-0.556955409096203,-0.332962557470577,0.0406569820391459,0.510724313589169,0.963459642399841,1.25985541641827,1.29804479871223,1.07018174355309,0.676043726646413,0.279446297541603,0.0318866195295436,0.00910795810162186,0.193599634377711,0.503095297696845,0.839599483405452,1.13033487218952,1.34520087042225,1.49071555851803,1.58989811074692,1.66059092100377,1.70298514187252,1.70158139892816,1.63867849499606,1.50940118947361,1.32755462083792,1.11882230896312,0.907626150201899,0.708066611648011,0.524242274233197,0.356053042571483,0.202646529606385,0.0604787726061907,-0.0799257026967625,-0.233273776619179,-0.414263933755835,-0.630923722139454,-0.879516220708019,-1.14318817796746,-1.39638953436089,-1.61479140829727,-1.78604883398997,-1.9152617562914,-2.02234240204825,-2.13286967861701,-2.26668917276221,-2.42992238933321,-2.61471841777944,-2.80553680196314,-2.98553439483194,-3.13766585392018,-3.24094475591325,-3.2668427197402,-3.18138323867377,-2.9562941369513,-2.58819691780369,-2.11810734693168,-1.63730361740218,-1.26649340426765,-1.10821933592036,-1.19304971068042,-1.45287398570109,-1.74423359245492,-1.91300453712835,-1.86259138648429,-1.58658006367989,-1.15377204549458,-0.663824817858804,-0.202959794115833,0.180719527191155,0.479722695160004,0.714589460204646,0.914644785777144,1.1007082657567,1.27638666791883,1.42958396892451,1.54328803294335,1.6062136295626,1.61841519802133,1.59976122827971,1.58358975749119,1.59769146715144,1.65208771008207,1.70735804531645,1.70360784835665,1.60124695924608,1.3714944025965,1.43942649522009,2.62206547685046,4.16250286262286,3.69793998207422,1.2926795693141,-0.0573621098020378,0.693589190371674,1.70851818186347,1.90694877050189,1.72861798751941,1.54045946644586,1.38513745267516,1.29511701585976,1.25404776680135,1.21680321583732,1.15304143593501,1.04748291433786,0.913395237663179,0.787156137296936,0.709329392500419,0.701416967240202,0.740564877813289,0.741655321938125,0.594689293098823,0.235158814301855,-0.27295993476971,-0.395569792598883,0.778294838332552,2.88214840371522,3.5419780742792,1.36176893684845,-1.73682735639525,-3.09613229384933,-2.30436687564435,-0.483299251354779,1.33575321078194,2.52133360316279,2.7904968595492,2.22518216787484,1.14097768836306,-0.064422374404385,-1.03503647272005,-1.58154366771009,-1.69187933177801,-1.45483835731858,-0.997386359294565,-0.354449644694607,0.436231249048264,1.24299285141976,1.94930667349332,0.985332913021088,-4.05656071094502,-9.48705619118635,-6.93485641002813,1.70639672211774,5.00524226044844,0.828889118125741,-2.86320978878592,-2.80219394298482,-1.66598073839261,-1.09269859903305,-1.08038693204192,-1.49261898490035,-2.02056121890424,-2.36883258107354,-2.43813736079119,-2.25800521299311,-1.94653560047187,-1.6129063549131,-1.30354263181356,-1.02288185670373,-0.751686803179664,-0.474639563826683,-0.200842736672201,0.0401880034395585,0.213280868574802,0.296223765456437,0.292638649773019,0.231066255665581,0.152651595187622,0.095117116778003,0.0814410624859236,0.117097069826325,0.192808909172548,0.288729224665157,0.379395417887655,0.439471512831199,0.449460532603062,0.400074880513063,0.293970745619439,0.145183764051911,-0.0221448271121802,-0.175359538795039,-0.276351853542644,-0.287075211266281,-0.178284825733941,0.0575784649739803,0.391198439292483,0.747640237598862,1.01784672145332,1.09744818966099,0.939596418580734,0.589485105567073,0.172227978364412,-0.163956257225236,-0.315160571042803,-0.259930462337742,-0.0516341055889799,0.221317531590052,0.47945418052424,0.67839436291857,0.810919243180729,0.892244938271572,0.941213537866049,0.968019693591766,0.97252388635845,0.950165222879055,0.899159453329454,0.824332907117214,0.736771227083718,0.651054337859473,0.581766872534959,0.539244006792857,0.524503010559605,0.526281862083478,0.524458166581244,0.499554427363996,0.441694021313248,0.352484212977611,0.240509993962956,0.116846897630146,-0.00551113616166233,-0.111330905652803,-0.187028997966941,-0.228394171974484,-0.245606906494342,-0.25971390025409,-0.291637037854609,-0.35101625020177,-0.432281884191237,-0.519670207038464,-0.596745708538801,-0.654630231950776,-0.695901200029113,-0.733333805889141,-0.783361952442217,-0.855982716830652,-0.945348176166943,-1.02549483334449,-1.05376253570434,-0.982665270238858,-0.779040161461817,-0.445698318849415,-0.0362264842594766,0.348704195075261,0.590727586732806,0.602730984109389,0.374824233811967,-0.0109842714053677,-0.411254456261189,-0.682896215387753,-0.742019508070094,-0.588464928057249,-0.288086973794237,0.0694482771366072,0.409726712718516,0.691355501673585,0.901742286247261,1.04205546045986,1.11404601047391,1.1159435289458,1.04735780567941,0.917789448022233,0.751863456705512,0.586489819695927,0.459415591762725,0.393745107683728,0.386857882279679,0.411301981775888,0.428312911447393,0.406046359431326,0.331754586144463,0.212451841124924,0.0668943896403639,-0.0840054731255387,-0.222760462348332,-0.335953138303833,-0.413471831965732,-0.450926434039286,-0.455523626889905,-0.449860639211011,-0.467834358633515,-0.542389271466107,-0.689649611713706,-0.895300282592196,-1.10924069331241,-1.25370236269732,-1.24609270768216,-1.03163457073087,-0.615254510689934,-0.0785331464912132,0.432339373210326,0.753277114134382,0.770613581397216,0.477825037815818,-0.0152159538936868,-0.53092092488871,-0.90300597923932,-1.03954108436864,-0.939701201181209,-0.667219655234246,-0.305890653377449,0.0766747434066126,0.442821430266487,0.776109601785913,1.06164233227702,1.27244742066672,1.37373399073076,1.34255837111539,1.18747653158488,0.952372681240206,0.701229958171691,0.494396016114725,0.3699270690546,0.336087597674197,0.373270097642175,0.442220766307078,0.497266042280343,0.502205094718689,0.442748556057236,0.328641020068888,0.184479032188935,0.0362199610398748,-0.0978686303602725,-0.20914620209484,-0.296962783771429,-0.366799918406402,-0.428001163316771,-0.490372769853884,-0.56128053552157,-0.645425472246222,-0.746784218613559,-0.869255679719787,-1.01295841850063,-1.16744900832962,-1.30738853966432,-1.39541326297076,-1.39193166022114,-1.26813943869502,-1.01898180979853,-0.673096129335862,-0.294642786015039,0.0286606797396488,0.212118495915592,0.207474213661326,0.028039445244695,-0.25036713877229,-0.518181505456358,-0.677354857697174,-0.677560421460589,-0.524948861345774,-0.265325290101183,0.0425317162739831,0.348949902438358,0.624295764071071,0.857983739249341,1.04912190849878,1.19646855557782,1.29483797556757,1.33833698853112,1.3249172713375,1.25828487207631,1.14860063796106,1.01419948924053,0.88200130541539,0.782166048687833,0.737187201780695,0.75142781471117,0.80723879290767,0.869509689943505,0.897027744180977,0.857225654182507,0.738878206450381,0.556529291402718,0.343881262597871,0.139456082623807,-0.0284042036998262,-0.150643988866524,-0.237200021908063,-0.308012400306165,-0.380603040981279,-0.461607294084088,-0.546716039653288,-0.627461278184727,-0.69933261291691,-0.766256598442875,-0.839469682153086,-0.931842808023213,-1.05091963283954,-1.19421771871697,-1.34808973625322,-1.48874912042857,-1.58370836072371,-1.59408266000528,-1.48094849641574,-1.21919309483064,-0.81755529035975,-0.335302694041,0.119208946163829,0.417964280817031,0.46484193749638,0.245428089262189,-0.155031916357559,-0.581309134417379,-0.872802237186427,-0.928287809292334,-0.73780953880012,-0.371564172030584,0.060468935901718,0.455089924170446,0.749549307948272,0.932184039491924,1.03019616868374,1.08464296874005,1.1270934422944,1.16836793488115,1.20122341141622,1.2116137832533,1.19008516807893,1.13666111335953,1.05827186566656,0.963402663886072,0.859381241430948,0.753287158306229,0.653021664596725,0.565410791122188,0.492371207713124,0.429177314854501,0.367316208494339,0.299776493028554,0.224001706657608,0.140431205470125,0.049426568306273,-0.0495617251662793,-0.156251711113256,-0.267857866294227,-0.379242487503707,-0.484123697881062,-0.575990329647173,-0.649154164846573,-0.701808970043776,-0.741011080583738,-0.784807543537252,-0.855093795682877,-0.961087291510545,-1.08355868508774,-1.17334327505128,-1.16893658145101,-1.02474525814276,-0.735699644713083,-0.348054145642791,0.0472347144918792,0.338950958447633,0.434808602311377,0.303112478609336,-0.00505484787291518,-0.371263379482782,-0.659337754237775,-0.77220430728665,-0.684833064634139,-0.440159373294408,-0.117850991451645,0.203640811311463,0.474463803139426,0.680919308334861,0.832647868883737,0.939522862334648,0.996022117894974,0.985499224297277,0.899259774014371,0.752226369551039,0.581470634327351,0.429650658663341,0.326066864225186,0.276526582036635,0.265085292628636,0.2641154029682,0.246995300379344,0.198310665111064,0.117983707860282,0.0184249915223117,-0.0827471513362101,-0.170257409539709,-0.236293854796408,-0.282776473825276,-0.321067511849095,-0.368858386792235,-0.443824784048077,-0.554902797681327,-0.693968685418838,-0.831539122941733,-0.919405934755018,-0.902038034742065,-0.736967219852425,-0.420114823713914,-0.00506609678090392,0.399157808482122,0.661708403563194,0.686984684030457,0.466594020986769,0.0919673664978053,-0.285927171492887,-0.527742789970822,-0.56466378432662,-0.413844774724976,-0.151214229362299,0.13387166543903,0.376209190523974,0.551172365651238,0.669343646750424,0.756569486645925,0.831412160313567,0.893054621069914,0.925855991894011,0.913991599496481,0.852883718539635,0.750492772054695,0.622015257846947,0.484170113219151,0.351214147267892,0.232371647066804,0.131114420775731,0.0465738014500067,-0.0245640247386304,-0.0876022616509036,-0.150043865469888,-0.21978061729905,-0.300915707804847,-0.390774348194036,-0.481569483668869,-0.565913115130832,-0.642195753357051,-0.716786207469202,-0.802429845012891,-0.912911983319621,-1.053742526066,-1.21052484229914,-1.34139862634597,-1.38268996492709,-1.27180050799288,-0.979793749238494,-0.537427728562838,-0.039650119308697,0.377610613558816,0.583977082610548,0.509206759877638,0.181130819933572,-0.276596571455423,-0.691627925877667,-0.91288640406536,-0.867922952854365,-0.582029313664729,-0.155849294529456,0.28317118828174,0.632190084583965,0.845638922190236,0.93753524312496,0.9572404453207,0.955748311611261,0.962162026680515,0.980035456641499,0.99853214329751,1.00559872956994,0.994378941509355,0.963331368737451,0.915088280476224,0.856515653760455,0.798064033875668,0.749879779271446,0.715570109845864,0.688006752774125,0.651316750625903,0.589063788153865,0.4937425319043,0.370870225354471,0.234255572935856,0.0960315027515071,-0.0400296038282293,-0.176173757976686,-0.312060450905316,-0.438344498563778,-0.538613667765966,-0.598812931540509,-0.617752585019055,-0.611701892140622,-0.6101222094949,-0.645066286989855,-0.739373238498304,-0.897445450597095,-1.10048219887345,-1.30777372358704,-1.46472652065745,-1.51554588930669,-1.41742414224168,-1.15505880808812,-0.754559875738936,-0.290990942304573,0.120979638785977,0.360113666796225,0.348008902360784,0.0915772391896529,-0.308666138637352,-0.695791369411065,-0.922531706264477,-0.910680507208653,-0.67373159933467,-0.297286625875848,0.105514130920106,0.440097831914516,0.661089895277706,0.778600853754139,0.839433172718539,0.893751300775114,0.9665751420208,1.04971955375052,1.11489562676784,1.13558167669964,1.10321228950285,1.03014797346116,0.940641135781671,0.856857785311348,0.788431343949635,0.73079591180938,0.671362987654726,0.598063042243468,0.505486017185747,0.397498051618948,0.28655599826628,0.188778315044875,0.114908606754065,0.0618372198533679,0.011829375686528,-0.0578495793773368,-0.160641937752948,-0.291586186226385,-0.429134503598963,-0.54620939224019,-0.624495489848292,-0.665221002457386,-0.690573488259805,-0.733465336977028,-0.819770136776484,-0.951953419643563,-1.10223896226828,-1.21828378037339,-1.23884975903515,-1.11430505852629,-0.827314681879081,-0.40960062867679,0.0521939324514648,0.431685604050465,0.603950955998254,0.501175060993858,0.154093287401899,-0.309774724785402,-0.717215343595229,-0.924044510450225,-0.872218244187187,-0.60118802234218,-0.214707463025968,0.173041883555234,0.483591697089979,0.69370331685817,0.824582269730126,0.911966187922421,0.977029767554989,1.01536698094018,1.00775922097579,0.941292369543242,0.823991353694666,0.683562332177714,0.553375709362711,0.456307154262285,0.395911888300162,0.358189821436333,0.321121496153882,0.266263059286855,0.187129204017657,0.0910946725679618,-0.00595002446585424,-0.0893898284504408,-0.153998969596595,-0.205229472365539,-0.254372860306937,-0.312963076857633,-0.390185435489544,-0.491986489888174,-0.618352491227376,-0.757774718742586,-0.882204946281519,-0.947992204598542,-0.906605156881055,-0.724405542799757,-0.405613650912284,-0.00799122218973783,0.361696496341462,0.580494887130169,0.562694997807897,0.307443785670242,-0.0908190955566475,-0.481427920816477,-0.726116603898152,-0.757089890207574,-0.593011075881105,-0.310580611831206,0.00417311299475408,0.293981294135337,0.539900621460686,0.745182458886948,0.910715612194226,1.02065457370423,1.04738065579145,0.971328351339398,0.800881256110392,0.577144734616771,0.358968497420565,0.197251316343849,0.113872054165259,0.0963165970825557,0.109174390655642,0.114640121920571,0.0899807103127127,0.0327341700591259,-0.0468135550677507,-0.137836211559214,-0.236681154240001,-0.346985249410521,-0.47523763296331,-0.625685497478249,-0.795733011224298,-0.97156349070225,-1.12526283251792,-1.21644157850808,-1.20065031177876,-1.04456635206887,-0.74521930644392,-0.346430553155092,0.0589046628960522,0.350990433971224,0.428413748609093,0.257780870927944,-0.100799522148983,-0.511993201263741,-0.821905697927583,-0.92348964639682,-0.795719738837703,-0.498870033252241,-0.134418735914601,0.204716689336895,0.467802831624311,0.651267081567282,0.779716020124294,0.879110221846519,0.958826516492207,1.01084342055814,1.0226419975805,0.992187234447975,0.933386619217473,0.868933517136002,0.817883150491147,0.788315249109422,0.778418046319584,0.780782279539639,0.784516730273975,0.776236106268783,0.743618328461443,0.680654109309261,0.589849168846937,0.479715781846792,0.361133915068282,0.245960666030286,0.146566997304782,0.0728771256905492,0.0268691256818664,-0.00101287493142276,-0.0292446184228959,-0.077343885827736,-0.158102713184386,-0.273880056436646,-0.416521914180316,-0.569488025630896,-0.712766692578185,-0.830448381860324,-0.917064302015856,-0.978061189838399,-1.02447821215432,-1.06671250287563,-1.11195336131193,-1.16556768445195,-1.23285624797203,-1.31689420165247,-1.41107303974607,-1.49015714228358,-1.50776400759885,-1.40745830993757,-1.14811166849264,-0.73444571419162,-0.235962605046098,0.222260990104646,0.501927304371357,0.512685068277794,0.261417872819398,-0.141140407052635,-0.52564024244119,-0.738562198026806,-0.704705447565466,-0.445984204109409,-0.0536048818669676,0.363409635592927,0.723216320187972,0.990959847551342,1.1726088152741,1.29376397430157,1.37687199502724,1.42807869205926,1.43973114895385,1.40490549522898,1.33122787724328,1.2421181954996,1.16492207602533,1.11601227167036,1.09345855993339,1.08051460028783,1.05593935990825,1.00433387253373,0.921098623834368,0.810919527882316,0.683151513305238,0.548525372342151,0.418493229361004,0.304617059691721,0.214918330641915,0.148011181837237,0.0902341844363075,0.0204208913728704,-0.0790907307597428,-0.212334416422654,-0.367537269647856,-0.524375830131638,-0.665542603790753,-0.784491137751211,-0.884236269185527,-0.969409440736239,-1.03940425104428,-1.08904501295037,-1.11628840553242,-1.13057136188246,-1.15442082235224,-1.21440156832304,-1.3240833146611,-1.4683525233555,-1.59951797096828,-1.64941547825027,-1.55329121594018,-1.27674874867402,-0.837299347161955,-0.313280931115413,0.167571146276795,0.465667239838946,0.486947510949335,0.234410916958277,-0.180255725769653,-0.580332042092266,-0.802237696791783,-0.763981732816727,-0.488477677810564,-0.076921704786846,0.346026066275319,0.685499261512892,0.905787295913379,1.02770314363979,1.10087492905561,1.16874109631127,1.24553690296902,1.31531007808677,1.34904260357927,1.32655726195794,1.24960562448805,1.13972420889124,1.0245510041094,0.923192632573608,0.840100300004899,0.769383521061722,0.704203045519691,0.643408679551939,0.590342962674476,0.545215172266339,0.498638017230294,0.433660305546978,0.335614830856568,0.201357330548006,0.0407101011949132,-0.12911074261148,-0.290397907426843,-0.429480438736673,-0.538936137255593,-0.618369138094063,-0.673580223545816,-0.714018068934757,-0.74987069543922,-0.790724268433592,-0.84578434352525,-0.923109961180414,-1.02556090272603,-1.14427661913923,-1.25328902075001,-1.30967878262362,-1.26306802665998,-1.07536098695498,-0.745285540590605,-0.325348080083414,0.0825333726156447,0.35840575820144,0.413303638678183,0.232982773824229,-0.108321849663677,-0.474603711934471,-0.723387840603431,-0.762288968420461,-0.580508005862728,-0.243329577703903,0.144473147197671,0.486835479913901,0.732381682194653,0.882406709698298,0.971743001963837,1.03782171022063,1.09684258816172,1.13861129104343,1.13904845913107,1.07956318170148,0.961150781125994,0.806681394768811,0.651378384707116,0.526452218119318,0.444662051418149,0.396514577161594,0.359042631636064,0.310093088410363,0.238267278588327,0.144121588135024,0.0355014887678222,-0.0778086124575282,-0.187771978685733,-0.290722076569044,-0.389013433074918,-0.48992742187924,-0.601015768565925,-0.724548721368447,-0.855083681966317,-0.981026173676623,-1.08698364860061,-1.15385729911007,-1.15800655937104,-1.07407761998936,-0.884463064796338,-0.593983808357498,-0.244136598729468,0.0831748763857832,0.284262611859619,0.277060064913117,0.0506283505172503,-0.313089461826826,-0.667945802935533,-0.870845562126003,-0.846750838217411,-0.613468625908482,-0.258501166727278,0.110622575307131,0.413193153056359,0.619633738819074,0.747958618652001,0.839374372403549,0.927861992498818,1.01967914857635,1.09250784308142,1.11297965146907,1.06085213044659,0.944675572554983,0.800071314341187,0.673031643258617,0.5988878607271,0.588257971880843,0.625560390429395,0.678274344231511,0.710742522851036,0.6964941854495,0.625791440206042,0.507349923108492,0.363933341877318,0.222536382712516,0.102795297241843,0.00975816402776218,-0.0650944092905566,-0.136838263330428,-0.219764885661065,-0.322581816176916,-0.445112523604733,-0.576307861844183,-0.696647022867929,-0.786956790758488,-0.839933888506926,-0.866998283884559,-0.895718986439727,-0.958723084425718,-1.07886995407728,-1.25629451528925,-1.46168521820177,-1.63805752171721,-1.71166328937794,-1.61190265072212,-1.29834643116947,-0.788268651057946,-0.171934900000223,0.399123568071425,0.757550321294498,0.787411401513326,0.481811795345234,-0.0440799497524006,-0.597338516221655,-0.986330192765876,-1.09178514296943,-0.897778282414855,-0.478430298159076,0.0430286582790936,0.541747315844633,0.929155040581033,1.17174873536675,1.28770723857829,1.32514567104751,1.33273095882074,1.33717085673173,1.33801001050788,1.3188144683826,1.26396728310409,1.16986399131929,1.04656823092214,0.913107939079423,0.79139317665263,0.700933229219156,0.653484416881746,0.647352452050108,0.664578393460449,0.675507892555859,0.650797365270374,0.574105805936384,0.447045809272095,0.284361617126623,0.105338137566094,-0.0717294973713093,-0.23134554103294,-0.362562649237569,-0.461849109104611,-0.534069736548303,-0.589373342444898,-0.638186166675031,-0.688044750223235,-0.743112756766475,-0.80477724855604,-0.87257569343885,-0.946001163722722,-1.02670666860276,-1.11872420209492,-1.22434232692135,-1.33610282350959,-1.42935858960402,-1.46179250548921,-1.38399101085163,-1.15981384700776,-0.790099161595694,-0.329454351000553,0.116237208723052,0.420162911843657,0.486722073576337,0.300505901832476,-0.0582155170021427,-0.444262562786591,-0.708961654696182,-0.759307754307273,-0.586628380192906,-0.256268065748216,0.130252025286246,0.479425811950136,0.737059371952273,0.896887377205749,0.987986839825514,1.05053871457646,1.11227410340319,1.17593294463313,1.22211758509923,1.22399885024924,1.16469698854607,1.04803860375433,0.897985733582649,0.748378790245828,0.629373725718467,0.557103202546935,0.529334056108111,0.526931325634056,0.52084769810109,0.483642326677583,0.40117607272847,0.278159067784149,0.134424997510458,-0.00535709401457624,-0.122541185553869,-0.210910873277755,-0.276815060882744,-0.334106113992765,-0.396455065918726,-0.470324888708746,-0.552317557543645,-0.633216738542763,-0.706475839607562,-0.774451679918573,-0.846828954480342,-0.931999264203423,-1.02706807838843,-1.11199665030244,-1.15090448471528,-1.10145011847895,-0.930705876688104,-0.633047333010479,-0.244028887087777,0.156531706888479,0.459788261594332,0.564786176775589,0.426377289268813,0.0878750676813038,-0.326638360836301,-0.662078187182567,-0.798163888729285,-0.695884650795516,-0.403248784666102,-0.0228998791323962,0.337881020376869,0.609701196918192,0.778403037840015,0.873275976833656,0.936369634367212,0.992146308646371,1.03509262569539,1.03996804031674,0.984071993501095,0.865273086653523,0.705578564192048,0.5400612356655,0.399034261468482,0.295149777761864,0.22321041144357,0.169764670942864,0.122304858751484,0.0720325741310763,0.0129700494088608,-0.0579355477818758,-0.139875279244427,-0.228914255898276,-0.320107357490167,-0.408831842945524,-0.4915049926275,-0.567727359422509,-0.643102914235517,-0.728306397461268,-0.831715743168964,-0.949050437830575,-1.05675263892513,-1.11344394230584,-1.07021276199479,-0.889060257509067,-0.566375838568997,-0.151878622320263,0.252066391688665,0.521170102571355,0.562744840023926,0.364820922447572,0.0093159424819047,-0.36262455230696,-0.614097488327163,-0.667883558912588,-0.525614332973991,-0.248180171850721,0.0833588623862911,0.402578992702896,0.674122184404967,0.890722979760552,1.05877844450532,1.18314909775258,1.25912340756862,1.27423388140802,1.21801436587815,1.09410761176673,0.926572873168898,0.7542859706098,0.615375168439568,0.531410223445073,0.500834824580265,0.503584804616521,0.511710380694805,0.499448540601723,0.449257627829812,0.353874367278183,0.216178775444681,0.0481545968205909,-0.131473508803483,-0.30190282791152,-0.446381894912509,-0.557054916518518,-0.636469362594326,-0.695941415236371,-0.751904186090293,-0.820975672616515,-0.914797985381524,-1.03658560871699,-1.18064179147958,-1.33366438985959,-1.47516989526842,-1.57603635366033,-1.59801009137274,-1.49959860010148,-1.25199662575849,-0.862228639998304,-0.392209980342914,0.0430051823941771,0.309707116134461,0.315499638343948,0.0636233945652757,-0.335874627743725,-0.711915432641645,-0.910809459193425,-0.861821753330671,-0.595630373854836,-0.212635606291455,0.174585362759995,0.491302369094441,0.719671025129095,0.884318126087718,1.0210531253834,1.15064803673825,1.27021120373051,1.36060312010952,1.40057952345584,1.37930209547363,1.30301147046855,1.19411844530641,1.08293108473055,0.995943986851523,0.947011793172618,0.934887986399402,0.945399614866255,0.955290221630737,0.938006337587184,0.873308408745295,0.758367608184434,0.612257253055881,0.467020445212645,0.348538025697666,0.26034582192237,0.183086565126486,0.0905437688723866,-0.0303058179298758,-0.171073106623631,-0.310823298995443,-0.432490251366722,-0.532611013566942,-0.618921434517212,-0.701731540927961,-0.787553366341498,-0.877677460830223,-0.969135827395283,-1.05598425549017,-1.1319772799065,-1.19560489586892,-1.25435724946271,-1.32264306450782,-1.41159055431973,-1.51589668087988,-1.60615121465426,-1.63246123667053,-1.53991885274828,-1.29168546806751,-0.892116917734115,-0.400667009336602,0.0725257364934608,0.395770885133329,0.467341633615639,0.269956152053418,-0.105641038052127,-0.492597197481155,-0.723876381164426,-0.707134978977845,-0.45470964946694,-0.058804571036834,0.363231053866356,0.719022073568345,0.966410971549097,1.11254301163144,1.19523067896202,1.2568618525303,1.32181709464989,1.38764203529272,1.43349388173522,1.43843260734023,1.39599915540251,1.31614646704977,1.21637256363273,1.11091180566197,1.00545100888652,0.898783799207997,0.788174818402795,0.674331952146142,0.563296868725596,0.464493093043364,0.386024594396684,0.32941646618644,0.285989856667113,0.236941150638942,0.158884491173602,0.0341705723504004,-0.138858955571464,-0.342275190374314,-0.544909660992786,-0.71565464785716,-0.836119881058041,-0.905675244245397,-0.937415327328916,-0.949473120795755,-0.957868982245997,-0.974359132737126,-1.00843197229929,-1.06938567463266,-1.16392830265622,-1.2880631823459,-1.41796434261164,-1.50800059144087,-1.50064115976952,-1.34576524558476,-1.02295957728333,-0.560350899758497,-0.0422977756740819,0.403897589318877,0.647692704440045,0.611818566398569,0.318223303037092,-0.107971815103024,-0.487731817216381,-0.667533964056183,-0.584251101373406,-0.28041971908896,0.132371152209639,0.534456987648904,0.848475506012175,1.05761852937722,1.190500701238,1.28717708147486,1.36797513254103,1.42324128859568,1.42771617668133,1.36572873402135,1.24652869542699,1.09936006658374,0.955567828124591,0.833469122734837,0.735108779322575,0.652266278560391,0.574345069672418,0.493614524496037,0.406590327370608,0.312021981268902,0.208199690483278,0.0928542644315435,-0.0347643072556564,-0.172900375973472,-0.318067977137382,-0.465191197815378,-0.606595875951989,-0.732512823016494,-0.834918242414849,-0.912966614051656,-0.976103154473623,-1.04184052850549,-1.12818972394015,-1.24370245547057,-1.37921948862845,-1.5046037939723,-1.57225187364012,-1.5282813801477,-1.33148419330308,-0.976903316695614,-0.514530109641918,-0.0491595676267617,0.287950049330242,0.390372994558765,0.228753736739863,-0.125378908176839,-0.52305571558345,-0.801259177295911,-0.853309632104479,-0.667672167154884,-0.316641918522387,0.0921192610017356,0.468182561387591,0.766785125462962,0.986589663889778,1.14907257570209,1.27594937972986,1.37506609403662,1.43838267609059,1.45074089138145,1.40357100137723,1.30477580296461,1.17827025514686,1.05393670938273,0.955306292256185,0.892379113721641,0.861582233487884,0.8501534134134,0.841750442213715,0.821293578132899,0.777408633450218,0.702088141514604,0.589997838087695,0.440229728593563,0.259502505873714,0.0628531847731914,-0.130066916917391,-0.300964898999364,-0.437934821552683,-0.538018922440706,-0.607233687209827,-0.658337148547028,-0.706923899771501,-0.766998685594672,-0.847415221025143,-0.950454748852734,-1.07334530168336,-1.21180822242175,-1.36223135844338,-1.51913136577179,-1.66888967649527,-1.78512907296384,-1.83034713358374,-1.76403814516033,-1.5552594881128,-1.19833896460393,-0.72907386181452,-0.232812281590385,0.168743924038368,0.358588874366739,0.280378789306286,-0.0226691138037475,-0.416200422174641,-0.732445775846733,-0.844826760046116,-0.716002332182031,-0.396892478354121,0.0127652409456428,0.413347601279032,0.739384240289833,0.970172893757989,1.12101168688029,1.22409954470648,1.3084977459037,1.38668170706552,1.45194645212464,1.48660345751722,1.47587330105713,1.41894055884838,1.33050717762549,1.2329710109093,1.14524154652766,1.07484026360807,1.01673874892541,0.958553610669855,0.888658683154036,0.802517053653575,0.704036737307226,0.601958102965858,0.503966285119529,0.412230444971834,0.322871300618104,0.22879405507457,0.123272951474566,0.0027335005486661,-0.131490114143117,-0.273643753530453,-0.417335023876278,-0.559572406989809,-0.699730318586551,-0.833463133668444,-0.949041371390241,-1.03241665898338,-1.07772572550603,-1.09375446092277,-1.10127068961535,-1.12452049841745,-1.1827016812056,-1.28361689841782,-1.41883338172556,-1.56063332587736,-1.6627383379253,-1.66690872654624,-1.51737152348284,-1.18404705534563,-0.68965068409395,-0.125731215498209,0.361267146364977,0.620894790112498,0.568725868681856,0.237205480389988,-0.227811370723991,-0.629183220337488,-0.805899179340416,-0.697424424116335,-0.354596165867314,0.0998332356278189,0.533766586171412,0.859679903332406,1.05817714211358,1.16585872823704,1.23906652506122,1.31597953358364,1.39795965532565,1.45717047851862,1.46061919373559,1.39268097999582,1.26346288532432,1.10244406116801,0.944674474514049,0.816769440057903,0.727411279012382,0.666004160463725,0.610633583688945,0.540855092225435,0.447157439367946,0.331814806503097,0.202667589203463,0.0662688770733767,-0.0738264310089154,-0.213738585133025,-0.346612447626925,-0.464853032935945,-0.564574856626226,-0.646972946140825,-0.716227416328735,-0.777952306782441,-0.840100226296368,-0.913890924060483,-1.01139670292342,-1.13848417313988,-1.28480960546418,-1.41607168286839,-1.47583073906398,-1.40165296550377,-1.15292530563956,-0.739286603729306,-0.234472469991588,0.236158419002289,0.535750435553535,0.571429009728749,0.340894660816942,-0.0567031534501257,-0.458002016609579,-0.705439592412077,-0.712973785217579,-0.492901009773464,-0.13413902563258,0.249607694006255,0.571070597696277,0.796541135957783,0.942115533835802,1.04716382465366,1.14206581651714,1.22872897150703,1.28377900423998,1.27889823262126,1.20221085597312,1.06695595635371,0.904709134095321,0.750180482497994,0.627395009804458,0.543341843614975,0.489274451282549,0.446479696428833,0.393608574572175,0.3137963638206,0.199771173851584,0.0551889549016841,-0.107936732790031,-0.27369046784833,-0.426169055637995,-0.552187530479599,-0.643982512887077,-0.70279257544972,-0.741729953080034,-0.78446507689728,-0.857612693847399,-0.978859952055727,-1.14622909382428,-1.33341031857615,-1.49264379941864,-1.563870237671,-1.48926908672054,-1.23376476138745,-0.809314920818833,-0.292281792128369,0.183354658393315,0.467482862257805,0.459089629141456,0.161982461457357,-0.30518152949356,-0.756350150088039,-1.01865133033517,-1.0019393951649,-0.723906216215982,-0.28631624182651,0.178026058368662,0.560451226681583,0.811890820616923,0.947400645030908,1.02129304814133,1.08752642647116,1.16779850045886,1.24520824492004,1.28444080055807,1.26156741024056,1.18185509069517,1.07551538747382,0.978347209709886,0.913090780628609,0.882971798028167,0.877206007397508,0.879789832040569,0.874148452977584,0.843894253419674,0.774932574853438,0.661472198009055,0.512074239419163,0.349172990356379,0.19975126496509,0.0821964063132483,-0.00236621278045351,-0.0695139644779105,-0.142948117675142,-0.242622477266203,-0.375293795302162,-0.53224571969639,-0.694778179702952,-0.842776655157549,-0.961065209957832,-1.04279195958024,-1.09183378511449,-1.12368786888494,-1.16193421495103,-1.2295685264266,-1.33805892609136,-1.47795019144914,-1.61445413670387,-1.6914391704414,-1.64605661771597,-1.43243763573835,-1.04760383737387,-0.548528534023634,-0.048701791154616,0.312482021832519,0.422735926219282,0.251778721789464,-0.122804768165373,-0.540865397721017,-0.828408528728414,-0.872067771984735,-0.658288766097589,-0.261944304961567,0.199777459967561,0.618819622920791,0.930155199221416,1.12041773826579,1.21613910132692,1.26162779810403,1.29610334339492,1.33805910303381,1.38236462595634,1.40991580819846,1.40268503224825,1.35471253973206,1.27379216160544,1.17533600599725,1.07425273057108,0.980119464728251,0.896587223467038,0.822453412089019,0.752502814157444,0.678869000649991,0.594108433151992,0.494912588395826,0.383542060995209,0.265448241013544,0.145164713050496,0.0240540872784762,-0.099041882780181,-0.225927361901083,-0.357086802605611,-0.489520120469362,-0.61550084222539,-0.724589917987689,-0.80889565822727,-0.867940794022473,-0.909524204067204,-0.946676719228498,-0.993586109272167,-1.06261777870866,-1.16203737259782,-1.29260258936028,-1.44249252592537,-1.58333395149529,-1.67161288969292,-1.65708552930324,-1.49622346587645,-1.16833745195074,-0.692571993565438,-0.140492266954101,0.36710490254121,0.690393656739874,0.725387876651413,0.459592678345818,-0.0063180903644276,-0.491079314891359,-0.807435531711457,-0.840220212462871,-0.587550607687031,-0.146841185243198,0.341429756813537,0.758009410419636,1.04462875533814,1.20695003712973,1.28951914767984,1.34076529503432,1.38537963172921,1.41602851849986,1.40644243937821,1.33563501482837,1.20671013877919,1.04867820914577,0.901416454974767,0.79394248301511,0.72949936560147,0.686435660127419,0.63355417767985,0.54887549993001,0.429260984202748,0.286530454488306,0.136356056162926,-0.0100161786080266,-0.14666077711716,-0.269996011768639,-0.377721877626115,-0.470800883030419,-0.554569549413921,-0.636085053964629,-0.72041539049563,-0.810503795953476,-0.909880578971384,-1.02261469748614,-1.14824721720154,-1.27620151591649,-1.38473977016396,-1.44427928316267,-1.42199976440795,-1.28764551281315,-1.02404001425473,-0.643380716692126,-0.20202621355404,0.20009676458345,0.446103339903173,0.450851811304685,0.20913810359991,-0.187670029691359,-0.583614113530715,-0.824677418863127,-0.822215683536509,-0.580006088763102,-0.177605433808691,0.273481134986255,0.676535352742042,0.979638596779686,1.17946979596366,1.30211919499204,1.37530503248048,1.40939775146792,1.39708787048757,1.32847651161693,1.20866002942574,1.06436738081574,0.934192466874029,0.848195826079597,0.810510364268385,0.797337703104621,0.771954966145521,0.705945683111025,0.592186474677348,0.442960703625752,0.27837476381667,0.11557230182138,-0.0352100132162515,-0.169538369426433,-0.28726039932477,-0.39191897835273,-0.489334515242279,-0.585163134701728,-0.684009971687524,-0.791115242289935,-0.913556684379905,-1.05775556901703,-1.22431051363252,-1.40381551795573,-1.57552226282734,-1.70810411035092,-1.76200823547525,-1.69529084717647,-1.47615816234215,-1.10244064291031,-0.620691165431083,-0.130939855692175,0.235017026082023,0.361341242528241,0.203781460545006,-0.176996714453333,-0.629563484236293,-0.973111143327252,-1.07493653579195,-0.901523346369797,-0.518810301548427,-0.0488445484860022,0.388833480893891,0.721921102088673,0.939940160671878,1.07850321646425,1.18629602031764,1.29411686971504,1.40114996077334,1.48149876982027,1.50325157276311,1.44932592048815,1.33102508461838,1.18715475643913,1.06641807463986,1.00175010814492,0.99399634701113,1.01632257511513,1.03314548915749,1.01712309060802,0.954960832497602,0.845776606853034,0.698692749381676,0.530104447782328,0.358181241298476,0.19656733687616,0.0521289059950383,-0.0729562066392824,-0.17965100896005,-0.273537721065384,-0.365585991775027,-0.468097211900193,-0.587786488546574,-0.721745675718851,-0.858907560165231,-0.985001158752412,-1.08854127126331,-1.16670692476876,-1.22880218522516,-1.29372994712967,-1.38081140376016,-1.49828650492097,-1.63544890509123,-1.76138439090843,-1.82942756130923,-1.78583265563211,-1.58391654119931,-1.20579246980272,-0.687124661032742,-0.12907390245073,0.321495709345856,0.527095416496825,0.42635241625235,0.0726966313679196,-0.381939410626938,-0.751388582439729,-0.89215389345257,-0.754358493110267,-0.387147488297586,0.0960189398262563,0.570024066034365,0.943749217676103,1.18243200447279,1.30357438421557,1.35400327552744,1.38104669069053,1.41112354650296,1.44454564825342,1.46613978679198,1.46191851391599,1.42985390325731,1.37945977306605,1.32376556381933,1.27112686780383,1.2216472245978,1.16783839931668,1.09711073222184,0.995874253164234,0.856308403162748,0.683417268628195,0.496258977024673,0.320102482765247,0.174265693038912,0.0643958021293065,-0.0168412298574541,-0.0841163415672666,-0.153730292967156,-0.238951352045082,-0.345957873240403,-0.47213194166975,-0.608399998937876,-0.743470433326387,-0.866607134348045,-0.969522450912477,-1.05004526320555,-1.11603765495649,-1.18433363263291,-1.27285339421965,-1.38984271589091,-1.52501358699263,-1.6450129910149,-1.69572097413288,-1.61507226781464,-1.3571343176428,-0.920853433327054,-0.370193791946379,0.168972558827791,0.543494709251583,0.632773917845681,0.408973948497854,-0.0371197924227743,-0.526622062539168,-0.868156187691754,-0.937499587009719,-0.719167271856137,-0.294922127196965,0.204889647128493,0.657825705638463,0.989447753659937,1.18565548618524,1.2783521073709,1.31543400238287,1.3316075312828,1.33447254314137,1.31029019177251,1.24176181060689,1.12434363364164,0.971189005986084,0.805779113222779,0.649326073042414,0.512030348024305,0.392207482348449,0.280577964504703,0.165338594324913,0.036489683855653,-0.110123136365029,-0.269519822691531,-0.427519372664951,-0.56660263468209,-0.67633690838114,-0.761083541259883,-0.837941354459262,-0.926275351282245,-1.03735067804247,-1.17079906008373,-1.31814661353821,-1.4696602753613,-1.61953809559123,-1.76464847160282,-1.89613845404259,-1.99032593265188,-2.00782207718528,-1.90440628294926,-1.64985081338509,-1.24780696112913,-0.749951674663754,-0.256744393512902,0.104041188044664,0.223780564399342,0.0689518059656441,-0.287159601316591,-0.685424584315661,-0.94939293835255,-0.962044804497993,-0.707497668884926,-0.261171207514581,0.256602736229763,0.734831629195215,1.11080905463693,1.38285458430031,1.59560550182423,1.80511267067671,2.04092502825683,2.28669086917199,2.49079344407888,2.59905894793878,2.58810407211115,2.47948902015262,2.3280497364771,2.19358016417724,2.11420078374811,2.09615095967566,2.12134599914622,2.16251571441853,2.19477816116577,2.19959697452466,2.16406269144142,2.08036158328596,1.94731273098008,1.77175503073451,1.56691514655108,1.34807671708915,1.12832687871178,0.91560740677506,0.710058718703526,0.502302601774096,0.276060070949073,0.0160750909435953,-0.282729073727738,-0.609901876619789,-0.940511674684886,-1.23962489703738,-1.46743384134962,-1.58916961501735,-1.58578542194184,-1.4634876351794,-1.26352712590901,-1.04879662857314,-0.884447655241409,-0.810710566467489,-0.804274486973186,-0.987031992487045,-1.77647224033666,-3.07779544313384,-3.7404206008563
