0.122591278863921,-0.06308967105159,-0.208574453928728,-0.304452730588842,-0.306098591937382,-0.182476922350347,0.0486998174079964,0.333342011360677,0.604706924609081,0.804639359384486,0.899977813499282,0.887406794279441,0.788667414084893,0.640390716416935,0.482068251836024,0.3460199105496,0.250855025310059,0.199100045081072,0.179268436052303,0.170971644684345,0.151102661396618,0.0997776805841428,0.00525827851146849,-0.13287874249421,-0.303105351550539,-0.484265071825338,-0.650589941605893,-0.778560500169302,-0.854220153785615,-0.87876518752016,-0.869698627031809,-0.855737090267394,-0.866256917927917,-0.919019972539004,-1.01134693394126,-1.11873786251259,-1.2016920292025,-1.21798334497087,-1.13581018423332,-0.94370204516516,-0.654870325740299,-0.305365464739239,0.0536282735444092,0.368179142683016,0.596021610905395,0.71861942997352,0.746150183376504,0.71298365836554,0.665310074713636,0.6458969193503,0.681626769424471,0.777601546858531,0.918583391469813,1.07586971382498,1.21641038586687,1.31128564035772,1.34179676738748,1.30235954131997,1.19992863287051,1.05035702727227,0.873092618960847,0.686206262769701,0.503164716505136,0.331462664364125,0.172547467031454,0.0228250198224926,-0.124111133351766,-0.274359484493303,-0.43077432792905,-0.591323897633902,-0.74911628476909,-0.893755901344363,-1.01365802325827,-1.09928537095909,-1.14703005423651,-1.16239540766508,-1.16034403197972,-1.16140114410756,-1.18413229382524,-1.23660149946085,-1.31032409519755,-1.37977385260522,-1.40860422288096,-1.36078518983299,-1.21241845859149,-0.959855726733247,-0.621844608763152,-0.23586497888049,0.149928333778074,0.48746935074267,0.740206453102168,0.89232152811529,0.952475744438033,0.950096060611461,0.925197999618567,0.915696574108026,0.9470430824329,1.02736138149939,1.14841275444337,1.29048580587002,1.4285572043418,1.5376717262363,1.59677764664252,1.59127703532475,1.51465398849905,1.3690676433298,1.16463732979076,0.917527644451893,0.647260097132812,0.373579405346448,0.113109574526772,-0.123602422904365,-0.33357327036631,-0.52047068065188,-0.691337012332283,-0.852128011650802,-1.0038718167337,-1.14116220638317,-1.25396633670879,-1.33241376037639,-1.37263057082067,-1.38061047380723,-1.37154906258744,-1.36417392127772,-1.37224392589816,-1.39695261360297,-1.42369660135409,-1.42492569879264,-1.36837117020569,-1.22775508404961,-0.992108491787553,-0.670561951795062,-0.291336324754077,0.10449798759215,0.472739354076489,0.776764521711732,0.996247283905267,1.13110547351081,1.19931491181539,1.22942630400761,1.25049861795413,1.28300827948758,1.33386907675796,1.39692065521168,1.4577313747652,1.49984712649753,1.50976423884716,1.47934751433259,1.4058570845345,1.29053126258317,1.13680024702255,0.948883972947866,0.731096489840181,0.487875158454299,0.224302258035672,-0.0533024271135282,-0.337015475517589,-0.617103791917888,-0.881853776501477,-1.11778771197256,-1.31104245327264,-1.45029769206422,-1.5305208917303,-1.55588588910474,-1.54029782222691,-1.50484251966865,-1.47245725962249,-1.46087874306735,-1.47570113845126,-1.50610944978209,-1.52568627205977,-1.49895034778701,-1.39173538919096,-1.18186311249698,-0.866713857839331,-0.465695412166479,-0.0171602302676941,0.429553062827367,0.825384612693954,1.1334891217741,1.33826476528917,1.44819219907712,1.4913226709779,1.5051207149067,1.5241926126613,1.56964250877525,1.64309890170281,1.7272276797567,1.79246213579543,1.80715049363159,1.74703648457294,1.60107062038987,1.37292587318514,1.07916255162391,0.74507706872486,0.399016136160432,0.0663587220936609,-0.235017203016377,-0.496264188283726,-0.715980562852402,-0.897006419231541,-1.04375682557617,-1.16144178821823,-1.25680521914016,-1.3387400046083,-1.41722331813662,-1.50014128119743,-1.58885980138855,-1.6743569885025,-1.73611436896164,-1.74535731388915,-1.67245873164812,-1.49615383139817,-1.21118600665478,-0.831927595661231,-0.391404291008977,0.0637261425812595,0.481646564231597,0.816394992940392,1.03904854246581,1.14525357322284,1.15573201398426,1.1090409240093,1.04912633740275,1.01222510247176,1.01749851497362,1.06375837805092,1.13210129509414,1.19256069979691,1.21245232079635,1.16451494464593,1.03356784934442,0.820695750199575,0.543956013295024,0.234919940756667,-0.0685482533156906,-0.331481427377554,-0.530400919216965,-0.6589580035914,-0.729107966141171,-0.767266524048187,-0.805968652286689,-0.872909495236894,-0.980620839502613,-1.12055867139974,-1.26424653321305,-1.37139882633558,-1.40192911618765,-1.32733735234939,-1.13806661958533,-0.84583368292904,-0.481529513191023,-0.0893495016573938,0.282337434995039,0.591888050727134,0.813980136650894,0.944488417769441,0.998967097292379,1.00572743891072,0.996305791089007,0.996479508309099,1.02034437697205,1.06865455632055,1.13094084775201,1.18964806728894,1.22445029624116,1.21589462776545,1.14854760698527,1.01391185445366,0.812720072436,0.55583131881359,0.263226773443607,-0.0389289680181455,-0.322763959405881,-0.563877494656935,-0.746121741324162,-0.865060051834847,-0.929496397820662,-0.960386965360055,-0.986242494241276,-1.03490439263695,-1.12361049548721,-1.25110246187307,-1.39552212361112,-1.519615182192,-1.58148964036938,-1.54693606820468,-1.3991630008607,-1.14350108123515,-0.806866484471475,-0.432649614147491,-0.0715005969108987,0.23069493257861,0.444341380008625,0.562911802377149,0.602345627793775,0.593750125306914,0.572715111152502,0.568649078664531,0.597012197329623,0.656802840116745,0.733428492745349,0.805227788577953,0.851015761319662,0.855572301849383,0.811793848327639,0.721124462830012,0.593542432359579,0.445660533773045,0.297044491839443,0.166539926365435,0.0670776052920934,0.00340236007700374,-0.0213534316003263,-0.00812906156592944,0.0293377198247352,0.0653401636971172,0.0498708902307555,-0.0677235472355953,-0.292356418061814,-0.582799364025738,-0.739588178326979,-0.471388072089266,0.0392530284159487,0.202207975568293,0.0522299941693862,0.230474725159558,0.771155912123408,1.07972134388032,0.966718485401238,0.717799046868943,0.527557447854041,0.431809510786587,0.421056191629461,0.442786616204412,0.448580510787704,0.41732057508567,0.34126633334732,0.224782647533437,0.0739940784431247,-0.106025846483398,-0.303547065146642,-0.500714326421558,-0.677783785766065,-0.817382837133022,-0.910019298245715,-0.957836138995507,-0.974891099728741,-0.984347646329712,-1.01185404766713,-1.07574649569658,-1.17804223165812,-1.30073658880432,-1.40928404553524,-1.46231243715081,-1.42404921110815,-1.27474220277842,-1.01632701156869,-0.67268626306367,-0.284761748308371,0.0984494619301228,0.43133818795186,0.682714240645509,0.842592668107945,0.922118244699832,0.947225618202123,0.949237531273089,0.95589682675063,0.985020936391887,1.04166243676879,1.11900461342713,1.20234265170498,1.27431635175591,1.3193249059487,1.32599174184869,1.28780676311091,1.20279656997248,1.07291323599858,0.903275602217429,0.701180422511975,0.475121511023736,0.234342580270015,-0.0108909238966086,-0.248814967747097,-0.466273777036335,-0.649894234867917,-0.788410624173133,-0.875773539039192,-0.914079573677631,-0.91502807950421,-0.898832873586876,-0.890066118652191,-0.910683986531295,-0.971745101342448,-1.06685223728465,-1.1708803587423,-1.24588741407663,-1.25263601546484,-1.163107845819,-0.969075621961959,-0.684372670251094,-0.341586659801199,0.0149493729114996,0.338537074107989,0.59060641652203,0.749911607797877,0.817234625901438,0.813561933533571,0.772366599085941,0.728998214227722,0.710877230335637,0.731216217964844,0.787323826310032,0.863105506389235,0.934473461054903,0.975931263646349,0.96655113999995,0.894028497459189,0.756435131379779,0.562130524125286,0.328390766329314,0.0788689708440932,-0.160169096141891,-0.364505203004233,-0.5167319654129,-0.61009861280376,-0.650353952572379,-0.654741385785201,-0.648043768880628,-0.656426682793417,-0.700263045018551,-0.78737331048958,-0.90860228491605,-1.03786946805468,-1.13782979624861,-1.17004456577262,-1.10625737055923,-0.936568487011537,-0.671854970321306,-0.340697775717748,0.0170504385893644,0.358241675817677,0.64505609883521,0.852966880373389,0.975622177044571,1.02449419480653,1.02329283872874,0.999491413275351,0.97620210936781,0.966927453818275,0.974228754147836,0.99179526697121,1.00820860258147,1.01042008405033,0.98586265976304,0.923503023765901,0.814839254380844,0.655493345666794,0.44721109341075,0.199409956939131,-0.0707632761346223,-0.340469703117483,-0.585112353729358,-0.783347825108872,-0.922139517777003,-1.000691222399,-1.03190711175384,-1.04016156824259,-1.05500048546061,-1.10178782159585,-1.19188476496726,-1.31615622194424,-1.44531703853719,-1.53798050007468,-1.55342256873433,-1.46388517950438,-1.26226214711493,-0.963817822952746,-0.602683794111336,-0.224406314031129,0.12415900067275,0.405660603352182,0.600837292492439,0.711879520807849,0.759195964881785,0.772937919444936,0.782892027705031,0.810700961065946,0.866580316020035,0.950126397317812,1.05330717507571,1.16386649727104,1.26819845982678,1.3533599957256,1.40827474937257,1.42446071445711,1.39664248784212,1.32342644277796,1.20794376087526,1.05795626925863,0.884689069866448,0.700221313008691,0.514385404095255,0.332606413720973,0.15544530496378,-0.0203251999628797,-0.199566880005317,-0.385895610229606,-0.578680545373773,-0.771063026343308,-0.950154195292851,-1.09978393996458,-1.20518052904392,-1.25831980696918,-1.26231410057157,-1.23300907466843,-1.19631809601869,-1.18109672598101,-1.20922207388996,-1.28618693154635,-1.39609963404029,-1.50387768109548,-1.56467568995756,-1.53734400337678,-1.39687381019391,-1.14159564690951,-0.793653557323882,-0.393801307071708,0.00758699449863515,0.361568706258166,0.631712034005156,0.802279485043091,0.880609393969423,0.892719189426018,0.873984061074833,0.858463622494745,0.870277876908623,0.919223387423204,1.00134986038013,1.10345148527344,1.20882910927962,1.30159307918448,1.36852698683622,1.39947645582654,1.38769065580406,1.33065840952483,1.23094569884282,1.09614297644395,0.937396235432333,0.766839693500491,0.594918030790839,0.428532301543129,0.270340558346594,0.119038652935075,-0.0296216260209473,-0.181135101087416,-0.339872917915634,-0.506388025197874,-0.675320710916004,-0.835046860701534,-0.969687724474747,-1.06320624709695,-1.10468491251097,-1.09354067533645,-1.04296544466444,-0.979428653441464,-0.936624100500525,-0.944466837138915,-1.01677110013654,-1.142975538726,-1.28817843055448,-1.40216782996263,-1.43414617224773,-1.347744653929,-1.13157704756702,-0.802919011911311,-0.404245293384207,0.00647388519847737,0.369839025371982,0.640062786502014,0.796406553761235,0.847064421061471,0.824209540120454,0.772270009931208,0.73389335043157,0.738450606782565,0.796312410080065,0.899555276268141,1.02753194357228,1.15452379972845,1.25661610738856,1.31594506646815,1.32205834608671,1.2713577808382,1.1658415513654,1.01187498267282,0.819138459897622,0.599582895752051,0.366177227606879,0.131441871786339,-0.0938657636431242,-0.301360517132816,-0.484669526950185,-0.638483324574749,-0.757973139977605,-0.839513747095935,-0.882764363021093,-0.89295146612364,-0.881775093207215,-0.866045454759591,-0.864093849508773,-0.890517163494225,-0.950313875566364,-1.03438260039256,-1.11890472313012,-1.17008965886464,-1.153272970539,-1.04316977817501,-0.831741407034212,-0.531500197826555,-0.173810106714146,0.197186226489021,0.53383343143605,0.79555993456708,0.958131267265585,1.01873794784876,0.995221177637492,0.919805736716625,0.829615292779328,0.757000261289204,0.722249178383965,0.730232098749957,0.771339180544806,0.825766133726556,0.869222373432119,0.878240502424179,0.834309269089363,0.726924693890597,0.555642274307701,0.330781394686737,0.0723676353824791,-0.192743837438407,-0.435278908322911,-0.628953218412636,-0.755949266943431,-0.811159287599387,-0.803968727723662,-0.756859036933856,-0.700681881952088,-0.66706598085655,-0.679297884888879,-0.744097634280816,-0.847345129986197,-0.956125974885479,-1.02724332897934,-1.01962939876287,-0.906474184646091,-0.683215052255875,-0.369397130135445,-0.00454534953131076,0.360543943669922,0.675180560176898,0.90032069691449,1.01716919712916,1.03024804688568,0.964194265349163,0.85561829078159,0.74259657580593,0.654770000521901,0.60678853664715,0.596778977980556,0.609621639979287,0.623039365522463,0.614037826574407,0.564175828388546,0.46331983824875,0.311928318771601,0.121608879379363,-0.0866014790788634,-0.286563529779736,-0.453503239981617,-0.571089239986839,-0.636809163879713,-0.663353460435388,-0.674775776159733,-0.698057081359912,-0.752631472570441,-0.841609619557935,-0.94828688148724,-1.03982645062016,-1.07716649454291,-1.02748456728819,-0.874554560832662,-0.623724728652192,-0.300941879299795,0.0528384643616153,0.390303333494177,0.668188673922017,0.857383949902834,0.949587796201145,0.957866043879609,0.910940801615692,0.843676922935245,0.787217121473466,0.76154992952264,0.772042565691645,0.810195308035134,0.857616806981809,0.891412922916466,0.889410432464691,0.834551876948726,0.718295606317789,0.542578075309762,0.319697284961103,0.0700331142403731,-0.181720016151167,-0.411008481617077,-0.598069458006295,-0.732222868926053,-0.81476748197929,-0.859209754226398,-0.887996417708619,-0.925930275231251,-0.99172538205958,-1.09031076952244,-1.20897711388727,-1.31966352943264,-1.38732016100582,-1.38122625511251,-1.28449853285967,-1.09833133837928,-0.840751460658375,-0.541992303515396,-0.238379206205167,0.0347675952080165,0.250827029795175,0.39830569203943,0.483154443444555,0.525388364751771,0.55126268829293,0.584466943056053,0.639866371674264,0.721517447989908,0.824461084830805,0.938446218961146,1.05163380702383,1.15309463306911,1.2338829230953,1.28711395213691,1.30770218873266,1.29240880114562,1.24057061404839,1.15518419879478,1.04329006461713,0.914690215292159,0.779152916198274,0.643457770357584,0.509756672569272,0.375733931327349,0.236006241590273,0.0839894928595194,-0.0860937339568112,-0.277030365256188,-0.486402002458254,-0.705061085864857,-0.917370143886582,-1.1038093609461,-1.2454616691514,-1.32908423281008,-1.35149642935215,-1.32232183429697,-1.26401358036767,-1.20788267503008,-1.18562820148909,-1.2180758118505,-1.305313265862,-1.42308947553855,-1.52805018857526,-1.57024257961732,-1.50806116013593,-1.32036506138821,-1.01246264910314,-0.615189746285153,-0.178013465566855,0.242149384353027,0.594174795073343,0.844935269221546,0.986713143730541,1.03697877022272,1.0305147327414,1.0070975231182,0.999544452027607,1.02616063176892,1.08924896537462,1.17869507616069,1.27789697524649,1.36919684947613,1.4372949153072,1.47074680037582,1.46242552478368,1.40961883351162,1.31392485213112,1.18086558310621,1.01912440234941,0.839331824505574,0.652430175792692,0.467899958089143,0.29228026505545,0.128270514358007,-0.0254731259020054,-0.173657191613169,-0.322572320321972,-0.477458047595994,-0.63989140858172,-0.806177292769808,-0.967194634141889,-1.10966943036468,-1.21879371710469,-1.28208853612205,-1.29390334151623,-1.25913362672334,-1.19434723968722,-1.12500097141484,-1.07865690364762,-1.07568900542788,-1.12048858340818,-1.19690601052364,-1.27070830430089,-1.29905075292402,-1.2436562692841,-1.08267683573946,-0.817262737526112,-0.471651427266137,-0.0877656436342243,0.284180968253616,0.597515421862176,0.820827057827862,0.945780495277391,0.987689306977794,0.978404692729266,0.95465398690352,0.946689852918206,0.971091308382814,1.02910214428753,1.10971084336737,1.19539994203351,1.26810732041505,1.31348260383013,1.3227389877089,1.29254710789504,1.22388802993163,1.12061226759064,0.988083364707438,0.832074360524404,0.658032225468657,0.47073672370083,0.274250847325206,0.0720604584710685,-0.132567552637817,-0.335922823344479,-0.532969066061901,-0.71665521963166,-0.878013573666724,-1.00736173205947,-1.0963786372743,-1.14058535050445,-1.14188173090959,-1.11056927302562,-1.06550028560022,-1.03070418706942,-1.02819365238062,-1.06913231032232,-1.14724525847289,-1.23787953791696,-1.30374536693842,-1.3054806011299,-1.21321252976651,-1.01514694202564,-0.720909187638881,-0.359679698997963,0.025616974416136,0.387017034618334,0.682087163820123,0.88403501773612,0.987812718431739,1.00964900220658,0.980396988437416,0.93563498251927,0.90603297971581,0.910557384998866,0.953731468203407,1.02688535711298,1.1122551609732,1.18821692982958,1.23408024346357,1.23353117667621,1.17658819484391,1.06044595897381,0.889605943476994,0.675320868815467,0.434100773785471,0.185266413931015,-0.0519204093738393,-0.260788492571913,-0.429002878368786,-0.549581014878074,-0.621544212332096,-0.650542449215737,-0.6493382364729,-0.637267813853212,-0.637404132026951,-0.670912842924,-0.749850208880325,-0.871187472494345,-1.0149964464425,-1.14827597432865,-1.23354998131965,-1.23932001051102,-1.14878165148799,-0.964175177836591,-0.705998549786961,-0.407975837550232,-0.109504888314852,0.152604568687891,0.351393901754531,0.474296684871606,0.523608187238069,0.512965771045116,0.461874141762694,0.391122334701224,0.320710034947017,0.269605652729605,0.255173856185114,0.290567744659553,0.380376418189434,0.516731075545732,0.678334320322022,0.833410662782212,0.945841948205564,0.983036406491105,0.924096457986839,0.766579272033012,0.529604709400671,0.251341665173584,-0.0194200341678378,-0.235555089569511,-0.363991349597988,-0.394303409673369,-0.341038471744001,-0.239506727538404,-0.136625007922373,-0.0791907972059877,-0.101925618357847,-0.217632011893951,-0.412173491000294,-0.646766905717285,-0.868070321789163,-1.02316203068287,-1.0740427902086,-1.00680199678941,-0.833560227749766,-0.588154623051984,-0.317494148927985,-0.0703029542678227,0.114730762223186,0.218422256474416,0.245008559002058,0.218918644141544,0.175489681933179,0.149086688899884,0.162950528898044,0.224104570653571,0.324384505032148,0.446267278585279,0.570558738328084,0.682622130920343,0.774928170934866,0.845831602607989,0.896287858910628,0.926614687651618,0.934570243306819,0.91498600138145,0.860703824880816,0.764595689921512,0.622452332508668,0.436111182703155,0.215618638399276,-0.0208156360482869,-0.249541133551496,-0.446271726678207,-0.591702555484257,-0.676526356811339,-0.704615078120862,-0.69345366626506,-0.671275042742272,-0.670781368355659,-0.720158903198179,-0.833453982507555,-1.00361056446852,-1.20143311769012,-1.38192027615989,-1.49644431305615,-1.50658455638525,-1.3946671090132,-1.16782625164847,-0.855383525024073,-0.50136346554586,-0.154288586006954,0.143801898277873,0.366790331972715,0.509629335390462,0.58724190747231,0.62747862097191,0.660949696682372,0.711648754595245,0.791373121322085,0.898949808881098,1.02350279967588,1.14987468273311,1.26377841358721,1.35465651170859,1.41573806816515,1.44243793588621,1.43078448225941,1.37692747500254,1.27784460944901,1.1327378244406,0.944345215223417,0.719478144756238,0.468532142087542,0.204279785600487,-0.0594711064419421,-0.308964160758617,-0.531395945564674,-0.716043093136128,-0.855944561899995,-0.949949713517635,-1.00435424514082,-1.03315582198648,-1.05626258335043,-1.09551046587593,-1.16891617837403,-1.28427215007464,-1.43394111258382,-1.5931407202102,-1.72350818080836,-1.78198403341947,-1.73263934519293,-1.5574103376589,-1.2619958263256,-0.875258526385201,-0.442876018146004,-0.0173131149902718,0.353571714501681,0.636876385119351,0.821316451247158,0.917993281685629,0.954838468322207,0.966780323997379,0.985304912542926,1.03079425260623,1.10926291360738,1.21330989896462,1.32614352603839,1.42718076188245,1.4975124473687,1.52361505332247,1.49845870126724,1.42043995330349,1.29154996098025,1.11612052959788,0.900493361599589,0.653028068601464,0.383803792863026,0.10394680381081,-0.175027198187508,-0.441511411238072,-0.683816363574365,-0.890390177504641,-1.0508327422609,-1.15791137038749,-1.21021661161505,-1.21457379888876,-1.1869023612866,-1.15016728421142,-1.12889946418537,-1.14140412638679,-1.19227254946121,-1.26822244785213,-1.33947352713206,-1.36708758713771,-1.3142879717528,-1.1577117567788,-0.89447932938919,-0.543288416156004,-0.140437346256164,0.26746446210964,0.632903800659516,0.917690425825171,1.10153369453262,1.18599206349747,1.19216647771405,1.15296176618771,1.10281910145553,1.06857060800453,1.06420105870384,1.09027465080326,1.13678298842283,1.18732910673022,1.22302872007821,1.22551376987105,1.17917471734939,1.07303000608075,0.902464814777545,0.670680028386598,0.38927361790647,0.0773223316402163,-0.241157751567934,-0.540759393824563,-0.798317198992325,-0.996033593303944,-1.12401902494874,-1.18229771974522,-1.18196893029393,-1.14467293857627,-1.09931265754493,-1.07560614167109,-1.0954861431109,-1.16493439247724,-1.26956070038532,-1.37641767830798,-1.44225371234658,-1.42566205695318,-1.2988742805388,-1.05531193706703,-0.711204451022415,-0.301981175894946,0.12491280734595,0.519505433150587,0.839832300712286,1.0611631112497,1.18076076390306,1.21619566253031,1.19808474536485,1.16045909569804,1.13213784415322,1.13105900973934,1.16212305409167,1.21833118097139,1.28436612171281,1.34115236586846,1.36988456030008,1.35478750912885,1.28488215356711,1.15532652916103,0.968275012054123,0.73258602289397,0.462015421663846,0.172479200681373,-0.120434615854281,-0.40279819449253,-0.662448981627031,-0.888513350951793,-1.07119120621649,-1.20245881015214,-1.27800947668905,-1.30015377210163,-1.28047200874276,-1.24024365440443,-1.20688504762138,-1.20620318030619,-1.25265777726476,-1.34161918577508,-1.44751329525488,-1.52956907571226,-1.54362169991776,-1.45563560097557,-1.25187509805599,-0.94259248478942,-0.559303097613663,-0.14764934110627,0.242288456677144,0.566888715212043,0.799030231101119,0.934059806853318,0.988951641224457,0.994711095300831,0.98538402962489,0.988322062784436,1.01885523778104,1.07980429074528,1.16432110522516,1.25999840694857,1.35254423137225,1.42812298531803,1.47448901169471,1.48174095096294,1.44331703376159,1.35700477739061,1.22529159953022,1.05480885651418,0.855213958789139,0.637820696950075,0.41388736419588,0.192540362902945,-0.0210294422493641,-0.226028788926666,-0.42461713889789,-0.619125772966714,-0.809279666015645,-0.990549962895922,-1.15400720809908,-1.28763914654559,-1.37920339979445,-1.4205132325923,-1.41207709478963,-1.36592957785193,-1.3045021760287,-1.25480366078654,-1.23925717886527,-1.2663161127554,-1.32473688201803,-1.38452406234237,-1.40498001058516,-1.34709984926834,-1.18568443598017,-0.917125437685775,-0.561078585110624,-0.156330487345454,0.247895412874953,0.603440180428099,0.8747765938147,1.04706866755941,1.12790709980208,1.14233549435615,1.12338215810015,1.10169419632921,1.09772488619415,1.11857495107921,1.15960224902,1.20911816160344,1.25367274465831,1.28185551322189,1.28580150368775,1.26091332225875,1.20500515513821,1.11791011535248,1.00180765481036,0.861673166856551,0.704954264129274,0.540104306264329,0.374518203741437,0.212916815880649,0.0568998212526804,-0.0944453973356331,-0.243551725363098,-0.39341858251337,-0.546440301648843,-0.702688715421599,-0.858151264669211,-1.00412520375628,-1.12854148132966,-1.2188335406985,-1.26526704072852,-1.2638925893374,-1.21881626435326,-1.14340547020267,-1.05937584996049,-0.992494559688903,-0.964846673891557,-0.985888395788593,-1.04621242606383,-1.1175122244384,-1.15959049103107,-1.13197472119536,-1.0057693854763,-0.771817466650453,-0.4434085751528,-0.0538161597535375,0.350371633733933,0.719175098201251,1.01071305445638,1.20113051142227,1.28938063815713,1.29503497604928,1.25038408077763,1.19030312676904,1.14337690916391,1.12630683666824,1.14216194039959,1.18212670647644,1.22967646558177,1.26555537494839,1.2720235724249,1.23560838421542,1.14839632665054,1.00825089273249,0.818366461921617,0.586519795326811,0.324201013885835,0.0455262815691274,-0.234170396061956,-0.499808582353633,-0.737651547789276,-0.935920814605103,-1.08533241567914,-1.18007183710759,-1.21944329451205,-1.20988058106109,-1.16626290350033,-1.11096722703537,-1.06954349599957,-1.063425744819,-1.10182359847663,-1.17594176218581,-1.25853117396653,-1.31017540103325,-1.29074428645402,-1.17164746331677,-0.94415246854659,-0.621491468382403,-0.23553986899986,0.169874045066499,0.547536378165153,0.856365938617807,1.07025437122481,1.18351991117584,1.21067509927213,1.18048198902763,1.12675787602878,1.07932676781739,1.05769014013298,1.06844999302081,1.10618307546686,1.15661410473649,1.20066491143563,1.21833323212016,1.19201410648987,1.10923056997839,0.964632690601544,0.760936957949668,0.508604312391146,0.224412667838409,-0.0707561218991167,-0.354694469022521,-0.606917586052101,-0.811446481886265,-0.958861109311818,-1.04756129804045,-1.08441312213783,-1.08464318377223,-1.07027290779017,-1.06624220489839,-1.09402508096253,-1.16392810314368,-1.26888231767432,-1.38317032905935,-1.46796049964089,-1.48235192618109,-1.39581544876993,-1.19723819652384,-0.897924872492522,-0.528934900041215,-0.134486026869397,0.237173952060942,0.544261762433055,0.761027117865425,0.882940278604566,0.925258473270535,0.915927605946443,0.886044373552142,0.861353358597725,0.857233004549288,0.877435145132098,0.915687217422258,0.95936774928387,0.993581800812817,1.00437927026313,0.981013173842045,0.916907817216528,0.809656156851156,0.661856027458559,0.482906274541602,0.288514412959757,0.0976158633125215,-0.0706853938209885,-0.202173570544503,-0.2893554156025,-0.322617536031161,-0.294509933222425,-0.214156337470882,-0.110392475613807,-0.0527573948397527,-0.123491300064928,-0.352860846799527,-0.708657918409874,-0.933289300004017,-0.617191501238007,0.0322745613248146,0.223716877662858,-0.0449346380231422,0.0734739265826376,0.683538760285317,1.03046999217115,0.834247779382655,0.440071668771288,0.104023272988582,-0.113138176495338,-0.211179463355735,-0.250779064988226,-0.290986997133824,-0.353808200743438,-0.438948564050802,-0.526626926614649,-0.596645571384487,-0.640590628545893,-0.658924756348648,-0.663262878013163,-0.675700062650308,-0.720727058130509,-0.815104731528216,-0.957944536286352,-1.12531395523833,-1.27441247485941,-1.35587607053116,-1.32833588249147,-1.17024793692729,-0.886167107903168,-0.506256081265616,-0.0798588317170156,0.335331858546086,0.686948460693766,0.940710709353815,1.08767633626942,1.14349357433605,1.14033272295908,1.1152073378879,1.09923868158128,1.11082667941127,1.15362011546503,1.21870130010558,1.28942777871664,1.34700411822734,1.37504911376025,1.36195453849895,1.30098921436928,1.18929359792723,1.02714749927445,0.818167856820289,0.569968031242884,0.294278827639147,0.00596540799365288,-0.278833698922162,-0.544604596496629,-0.777575960386167,-0.966074796703436,-1.10107385910598,-1.17790575372747,-1.19904904879774,-1.17648384876959,-1.13147426357398,-1.09051914122137,-1.07806803759227,-1.10817108127356,-1.17794435700698,-1.26560549968116,-1.33469939400625,-1.34382614132886,-1.25862863855222,-1.06181800156893,-0.7583629140418,-0.375240760284016,0.043580933064888,0.446122787641215,0.784031310741814,1.02405517447991,1.15543286273856,1.19038795281367,1.15793805828535,1.09392683151152,1.03100681003241,0.99142966532026,0.983935205849763,1.00451625554833,1.03980439289422,1.07149647972753,1.08052029741062,1.05019607585977,0.968271299728438,0.828208175954412,0.630181138460354,0.381845915895622,0.0984872823705462,-0.197998365071162,-0.481665915942073,-0.726566840432668,-0.911597090253189,-1.02506528609431,-1.06793565752363,-1.05487139086121,-1.01223415032884,-0.972433800182181,-0.965037544096021,-1.00675499066288,-1.09385665146276,-1.20059376379243,-1.28526636820225,-1.30236918925747,-1.21642468465169,-1.01250839874995,-0.700451624116037,-0.31259457743555,0.103373883552625,0.494831598483454,0.816083113702153,1.03875731289368,1.15721642079546,1.18709606835532,1.15824469251846,1.10534911374163,1.05921643280931,1.04033513412467,1.05553716360343,1.09823024169165,1.15185284155931,1.1950371847134,1.20653437951162,1.16871782550254,1.0696706791139,0.904505474998443,0.676400456848373,0.397216958933878,0.0869820321059723,-0.228537137076313,-0.52218341891421,-0.770510727648016,-0.957915930062645,-1.07883678191287,-1.13831583789045,-1.15155983932765,-1.14223978088024,-1.13845716355841,-1.16586258825497,-1.23922633475177,-1.35543047719979,-1.49111811695567,-1.6069035100064,-1.65764830077584,-1.60566121576581,-1.43210941176356,-1.14272700024152,-0.76664452033617,-0.349642241534149,0.0560883636998398,0.403641064912035,0.662075343222753,0.823068842358417,0.901193445265423,0.927527604353425,0.938773983370845,0.965818470066936,1.02587272425628,1.12052117038315,1.23901708665073,1.36408117821357,1.47743278262082,1.5635634576279,1.61149513075126,1.61495864241776,1.57171400422831,1.48269015416549,1.35129303517446,1.18285772259585,0.984102698778726,0.762543599445867,0.525820717068553,0.280843178781808,0.0329628834041395,-0.21413539088279,-0.457308156375159,-0.691991449119662,-0.910598503057352,-1.10245021290214,-1.25571597567908,-1.36099194237347,-1.4154894900171,-1.42638954745269,-1.41169777656934,-1.39718125511235,-1.4091301276368,-1.46466019289309,-1.56307232270176,-1.68221295997277,-1.78229021934862,-1.81662207386216,-1.74564870940276,-1.54903616870335,-1.23191546514794,-0.824232461792962,-0.374400743175836,0.0611264827936521,0.43071231788407,0.700066464455195,0.860425241216512,0.928979547013346,0.941158822862527,0.938011134200461,0.953794472740636,1.00798747033139,1.10324141604842,1.22828431094002,1.36362169166746,1.48786045160763,1.58292711073668,1.63707340676261,1.64540024956122,1.60855752833448,1.53084300196607,1.41872887981648,1.28004411599778,1.12332753814492,0.956816202676062,0.787082191078242,0.617923161680842,0.450159406341925,0.282364254781464,0.111867313374475,-0.0645564304374432,-0.250115233738272,-0.446869220259482,-0.653855199521214,-0.865233407801343,-1.06964381288953,-1.25150923574883,-1.39415505009178,-1.48398264011176,-1.51474770865936,-1.49093832923649,-1.4290665551455,-1.35564670387051,-1.30120564093821,-1.29102746769338,-1.33517503559444,-1.42177331210458,-1.51729025033895,-1.57494222961266,-1.54850335345795,-1.40621596204648,-1.13994947667726,-0.767525806705211,-0.328769529449751,0.123221942463477,0.534032344724378,0.860731655104249,1.08177697734242,1.20030660495576,1.23969729441495,1.23380435219967,1.21621535141763,1.21213172854731,1.2344183473095,1.2836609193555,1.35121762984037,1.42375095010359,1.48741373616918,1.53024376350612,1.54257717911281,1.51657561416665,1.44622064524348,1.32834069434797,1.16421765223373,0.960643919139608,0.729311345473491,0.484327312482531,0.238858866357305,0.00240473730433239,-0.220287420055942,-0.428512999120454,-0.623586226447557,-0.80624620329747,-0.97438604518667,-1.1219912852659,-1.23978875964758,-1.31763431040133,-1.3482765605304,-1.33154916553929,-1.2774663084419,-1.20639336550639,-1.14488764579933,-1.11745015627261,-1.13665989495698,-1.1958143316081,-1.26801533739369,-1.31297741842779,-1.2891158518076,-1.16631306790488,-0.935043538414583,-0.609456882406571,-0.224732371609794,0.169985022262825,0.522146623349184,0.787724651019548,0.941427076185348,0.982219456365567,0.931758159857823,0.826193630966895,0.705454908470271,0.603980048536268,0.543776619096975,0.531564846819624,0.561637134825596,0.619855046996707,0.689628511012912,0.763082767636469,0.836545241607165,0.896279746237218,0.915905918593318,0.841739755087691,0.621211668837318,0.256899969289562,-0.192919451315807,-0.49187599628603,-0.311841526798859,0.125318785550847,0.144928070297876,-0.197476020672308,-0.158423652008792,0.299969721040101,0.500402621488385,0.239058360221431,-0.142448560031665,-0.411691169464741,-0.525092792378964,-0.497556412209359,-0.396613970002956,-0.284557037998093,-0.190597279389132,-0.125693282087118,-0.0792951258053707,-0.0371420144560208,0.002755807079871,0.0343790191752706,0.0297081749215886,-0.0464756069706364,-0.199179012544144,-0.401940836396161,-0.499441141801047,-0.255842086145803,0.178661574696178,0.317646533184885,0.188650222754351,0.320654592950782,0.744643412111139,0.974322075935771,0.856257754508326,0.625290009499903,0.438370941722513,0.321859036316337,0.267016834600867,0.232038526847676,0.18025258926931,0.0983659006765736,-0.0153989213936767,-0.152114342089095,-0.300727281775455,-0.451438552029649,-0.591438958706758,-0.707605084503431,-0.791300524105984,-0.841785297604377,-0.868927137268454,-0.892095968213086,-0.933903329066171,-1.01114748182574,-1.12605159639844,-1.26132673973084,-1.38224784485161,-1.44595490631351,-1.41435655486044,-1.26577285772051,-1.00157812124165,-0.646293843278389,-0.242172325515376,0.160024323588268,0.512521337162463,0.781741288561059,0.95577055727133,1.04537736250026,1.07825331915382,1.08884242759409,1.10753201087287,1.15262659684823,1.22716002368551,1.32085462846393,1.41570780072086,1.49259386219306,1.53639607457072,1.53834772892578,1.49583705733969,1.41086680960945,1.28824899519336,1.13399354120621,0.953968889052933,0.753013689769224,0.53473501799926,0.30190538585158,0.0571137757840753,-0.196488266105241,-0.454227056311117,-0.708716218951295,-0.948893961052346,-1.16022036680469,-1.32682784275231,-1.43548192201983,-1.48017328142155,-1.4657674743333,-1.40930237359365,-1.33780501659226,-1.28208586096544,-1.26738934809092,-1.30374108714034,-1.37997110113857,-1.4644706568123,-1.51302337619362,-1.48118794252143,-1.33719160810917,-1.07144702474967,-0.700177799526825,-0.262512808168106,0.188033475088291,0.5958107933969,0.916246007252277,1.12636317492756,1.22909173946896,1.24980188180835,1.2265019162517,1.19748800645865,1.19081223246181,1.21865849379295,1.27738691542446,1.35184486918815,1.42149872837674,1.46617196020448,1.47012495872006,1.42412825202343,1.325675619113,1.17774660205317,0.986851848770175,0.761262475481579,0.509959026756631,0.242224892099275,-0.0324053001053132,-0.303958680600352,-0.561681904229342,-0.793865593900043,-0.988340184406965,-1.13403514888285,-1.22356191861242,-1.25618103578295,-1.24008759194708,-1.19290769452789,-1.13949608935274,-1.10652911115817,-1.11440638764984,-1.16871687888884,-1.25497633912538,-1.3399573347774,-1.38025022729712,-1.33516261014602,-1.17902662784342,-0.90871915947971,-0.544838088661104,-0.127336379487569,0.292839475682827,0.664667718643196,0.948544780946004,1.12525521505439,1.19926931662035,1.19513402776732,1.14851658156925,1.09533893605012,1.06258749519777,1.06317287107262,1.09546601294222,1.14657526798713,1.19753376078265,1.22847177765981,1.22238879912202,1.16707583619379,1.05572143796645,0.88715149534985,0.666151197827911,0.403495252207613,0.115138722941784,-0.179449184600265,-0.459405347408065,-0.704765175063301,-0.898932546369599,-1.03135124687841,-1.10014172617053,-1.11406197191083,-1.09269905194822,-1.06362312810144,-1.05590949310426,-1.09110698765276,-1.17456581622164,-1.29075253173944,-1.40516374298103,-1.47306580252212,-1.45245673719566,-1.31668113622042,-1.06233572264376,-0.710488961077584,-0.301942692374481,0.111615327555029,0.478914510276298,0.760944816227059,0.940216952883143,1.0238825310975,1.03913193206397,1.02282807583931,1.00979298407237,1.02390320985746,1.0740007370595,1.15450125328691,1.24941860382118,1.33805310726718,1.40048640226232,1.4214132036853,1.39173836654156,1.30830818669755,1.17263027039697,0.989417639580955,0.765491366136635,0.509191354682435,0.230195001767246,-0.0603549480772718,-0.349495665202663,-0.622183944936961,-0.86176567701994,-1.0518141654799,-1.17955962964699,-1.24039939144474,-1.24207333841988,-1.20634374617007,-1.16603566221309,-1.15662647309955,-1.20412433842979,-1.31359196903713,-1.46358064838183,-1.60985449097944,-1.69779665572241,-1.67898178698101,-1.52578179553485,-1.23929434680954,-0.849106685521761,-0.406135922661986,0.029252142500378,0.401507238842999,0.673376695758333,0.834406623595391,0.901075849544044,0.908457164699564,0.89707556507639,0.900386792943819,0.937211635700526,1.01058314954976,1.11156749293684,1.22507704334232,1.33491748629622,1.42675737975864,1.48926874670149,1.51435895194066,1.49711587463503,1.43567065447749,1.33119467046343,1.18818079575181,1.01457733672097,0.820954034660401,0.618448188094595,0.416214214734678,0.219422968548038,0.0284826993786872,-0.160232438935943,-0.352096334360755,-0.550812893884965,-0.755000691986951,-0.956267834393022,-1.13984222924372,-1.28785511417951,-1.38444705048088,-1.42136285435615,-1.40252928865896,-1.34594683990338,-1.281222983631,-1.24199762355259,-1.25469529759888,-1.32741972629815,-1.44367149360767,-1.56415407667588,-1.6368718910328,-1.61235997890798,-1.4587250598353,-1.17142375630617,-0.775207068711667,-0.318554738346113,0.137544063292525,0.534078106080098,0.828466106745505,1.00460727138116,1.07480028298227,1.07287561714134,1.04167702299789,1.01999866985983,1.03328243111298,1.08996498834461,1.18309415551796,1.29551761085738,1.40643708510357,1.49715645186248,1.55443247730969,1.57098224882497,1.54406917776795,1.47386276899259,1.36278559975876,1.21575844491799,1.04039281570159,0.846378402139546,0.643992931786335,0.442124419755285,0.246419093373705,0.0582853933030339,-0.124696533455955,-0.306973223866186,-0.492427311938493,-0.681849101581741,-0.871219082021534,-1.05127316335843,-1.20855411981842,-1.32802757118606,-1.3971882257804,-1.41098271887893,-1.37590902610722,-1.31115765356057,-1.24526651327187,-1.20823353292427,-1.22087503139082,-1.28503740886406,-1.37912520245699,-1.46199643832543,-1.48461185681242,-1.40507365090234,-1.20145426163346,-0.878578557246664,-0.467717717025706,-0.0199289122708852,0.40551710458786,0.755297389120065,0.995107000476132,1.11738891633629,1.14096633178335,1.10298516977048,1.04652716740346,1.00835908648516,1.01041024780616,1.0567137248339,1.13568261181023,1.22612728833941,1.30452357179261,1.35103707125392,1.35282361325444,1.30453068275979,1.20692617153293,1.06493109842178,0.886039423610072,0.679383019693468,0.455063999261498,0.223280880828973,-0.00682566379515813,-0.228194599946073,-0.436126260463551,-0.627461096071083,-0.798852448269999,-0.945017243460833,-1.05816050342901,-1.12932517555315,-1.15160721295238,-1.12419613735216,-1.05539015904912,-0.962877003957531,-0.87049212290785,-0.801799168596793,-0.772089902631337,-0.781500788194745,-0.812213245591124,-0.831729992336458,-0.801864602866617,-0.690335969710019,-0.481097113911362,-0.180419586990601,0.182803859333746,0.562071116961532,0.90258985294749,1.15367363143908,1.28105810848509,1.27510307389253,1.15277594922052,0.95307556895335,0.726135057756716,0.51978001804144,0.36904878757981,0.288826384464634,0.273121377077258,0.306344458637624,0.367797162007038,0.427201832077688,0.445431663196406,0.359085971901441,0.0987256435753348,-0.359761665585439,-0.978654179615565,-1.52476776117538,-1.60116626043711,-1.25591408036359,-1.08315646353354,-1.20588183304759,-1.04182533415675,-0.433432275949761,0.0803722891591407,0.187484740455055,0.0594171732456006,-0.0997318402273898,-0.186280101611605,-0.146608777512242,0.00513704301949777,0.225956365411465,0.477470647332743,0.726495997987392,0.951703334259882,1.1371813586921,1.26837637993482,1.33800594767829,1.34659466156626,1.30027051904707,1.20874740401268,1.08193503758628,0.927508947977723,0.75081332396049,0.555726317744453,0.346061080424708,0.127584397657323,-0.0904358884721433,-0.295423036274632,-0.473605904224529,-0.613803376777562,-0.71193412249905,-0.774184658148083,-0.817245425620072,-0.864771054785184,-0.940015900035499,-1.05642877340596,-1.20967868951778,-1.37504626906645,-1.512536930324,-1.57849816789949,-1.53917567375643,-1.38106361333123,-1.11507620867956,-0.77431660572687,-0.406735300396972,-0.0642083698210674,0.209912546799594,0.391468572066312,0.480728925643949,0.500200289601818,0.485955946195797,0.475909015074724,0.499124255281217,0.569197204432167,0.682896922257428,0.823609742452573,0.967967229953667,1.09325820521675,1.18302371702538,1.22922283550093,1.23126964350077,1.19360082202608,1.12334989337779,1.02874154601249,0.917977465535098,0.798197839226813,0.674442280882705,0.548910526276842,0.420876340597798,0.287380895924751,0.144559249142153,-0.0107279545351001,-0.179335069047582,-0.358677493984677,-0.542273034982595,-0.720195081601547,-0.880394874904106,-1.01056115349919,-1.1002917010694,-1.1436820134591,-1.14220640263145,-1.10682007209101,-1.05749971709758,-1.01896741993413,-1.01310213461913,-1.05050691705446,-1.12460578410661,-1.21097873154575,-1.27282941995913,-1.27119778953038,-1.17650883120127,-0.97737954998228,-0.684021477182594,-0.326104933053705,0.0534915189829041,0.407720349337643,0.696018369047389,0.894205815643059,0.99996429129074,1.03124126244495,1.01832666099292,0.993378939638387,0.98156015469782,0.996174441688837,1.03816649069503,1.09897825567184,1.16503874636187,1.2220829648856,1.25813090589174,1.26488549343744,1.23789663435088,1.17595915045556,1.08021465770386,0.953458053728427,0.79995305389318,0.625551035656062,0.437521762928158,0.243707048702906,0.0512151520750534,-0.134757129966819,-0.311501664080014,-0.478536567696971,-0.636413055726479,-0.784839578767251,-0.920919755205333,-1.03849347715582,-1.1291050147506,-1.18445654793512,-1.19980705561946,-1.17745045188598,-1.12885560962948,-1.07372201270579,-1.03497731180091,-1.03070434703874,-1.06597243928524,-1.12817191113089,-1.18830124140523,-1.20835004043025,-1.15245928562919,-0.997969402651365,-0.742615696673722,-0.405930035002648,-0.0251050296051025,0.353170865738318,0.68309900877049,0.930225299525823,1.07920408544145,1.13628696259824,1.12563340634126,1.08091106545417,1.03525116204539,1.0128032608294,1.02416949446214,1.06636358094015,1.12621650701784,1.1852100505482,1.22403237759331,1.22609368934455,1.17986326554582,1.08006008869507,0.927836359897764,0.730165300748373,0.498553255496503,0.247188326184143,-0.00909255246619995,-0.256449702042386,-0.482991476411558,-0.679152109823941,-0.837762494778785,-0.954038171626913,-1.02584503310548,-1.05470335810737,-1.04745377883889,-1.01745021755377,-0.983577409514125,-0.966068713269158,-0.979764373458375,-1.02721446517538,-1.09487916723836,-1.15483893168319,-1.17205568768373,-1.11465410926623,-0.963481091662507,-0.717905702933008,-0.396645324703599,-0.033999548326367,0.327383805199124,0.645713824772902,0.88917831011537,1.04252038487722,1.10910806585229,1.10803896798519,1.06753557716314,1.016881599485,0.979178777927609,0.96666564179484,0.979556833514473,1.00827510603571,1.03769133081093,1.05132427503914,1.03409019925218,0.973689526002507,0.86167113194182,0.694839805037491,0.476672378069374,0.217944413473818,-0.0638962286399993,-0.346556307228752,-0.605723702742994,-0.818799555067209,-0.969266025815134,-1.0507842769383,-1.06962635714613,-1.04436613814752,-1.00261817573256,-0.97516319803058,-0.987980477564223,-1.05345645783339,-1.16361595204409,-1.28910061112573,-1.38597671868634,-1.40863536811161,-1.32376629802963,-1.12016634392148,-0.811788250246037,-0.434380093100484,-0.0373090381993146,0.327753086143852,0.619060031840154,0.814635538774661,0.916350773672553,0.946736840395783,0.940000944986357,0.930886284854034,0.945201820289295,0.994452489432252,1.07529705010424,1.17321773129605,1.26866225572439,1.34317380347669,1.38333250045903,1.38175988403125,1.33601885094664,1.24693479321562,1.11743904544458,0.952062101770384,0.756546768333282,0.537209277833118,0.300308536105812,0.0519747810289351,-0.201127350706044,-0.450819471744234,-0.686800456732182,-0.896944495552429,-1.06871571622057,-1.19166403159944,-1.26075431123014,-1.27976660836979,-1.26324919428078,-1.23523508988103,-1.22372803487075,-1.25168733723734,-1.32730057340349,-1.43773355875368,-1.54998118675989,-1.61948046059389,-1.60333832478702,-1.47297837534042,-1.22203401711683,-0.868139524830702,-0.449361291177855,-0.0163253370961473,0.378970913618737,0.695541449720033,0.913205948972855,1.035978498205,1.08771787192415,1.10223343892751,1.11220618472238,1.14084896592881,1.19803624636639,1.28060047135745,1.37563486310265,1.46544515767276,1.53259185793147,1.56351778464236,1.54999664466849,1.48874485152105,1.38027060737914,1.22795929421096,1.03764488413618,0.817154401102745,0.575267824894519,0.320245767246329,0.0588002669735509,-0.20363051771077,-0.461286449220872,-0.706171012079249,-0.927140149771379,-1.11076907016127,-1.24408390966879,-1.31882982969146,-1.33625260501333,-1.31022957972779,-1.26622645498048,-1.23506384335246,-1.24304301329708,-1.3018376236452,-1.40194689501789,-1.51266010596859,-1.58947450004128,-1.58691362180542,-1.472119526679,-1.23439978123382,-0.888282383028827,-0.470400169062728,-0.0316613578530178,0.373915943929888,0.701795680104821,0.927544942178223,1.05152141509613,1.09568333917244,1.09421142062279,1.08213939538794,1.08607258154316,1.11925362965935,1.18131446199115,1.26163249937523,1.3442831950097,1.41247217885489,1.45130690711585,1.44915270414059,1.39840353565323,1.2960111300257,1.14354460671621,0.946656139673623,0.714158961629038,0.456885227305248,0.186391049636355,-0.0861592629625262,-0.350379751751798,-0.596195717469723,-0.813212356869655,-0.990938066451396,-1.120321897719,-1.19618665053999,-1.21975562857899,-1.20057031683906,-1.15699899952162,-1.11413301230491,-1.09805699831069,-1.12705806209799,-1.20272880029563,-1.30531796862907,-1.3966057936309,-1.43026435334985,-1.36599121635891,-1.18193836408462,-0.881211179900645,-0.491401065129706,-0.0586308724568307,0.362044719227986,0.718525126701219,0.973767031917043,1.11450257579389,1.15303120801256,1.12126885475303,1.05972390040766,1.00570356853098,0.984363930434161,1.00455413494849,1.05971999866428,1.13254517233424,1.20098845549715,1.24357530886913,1.24291005820147,1.18743955153363,1.07204429786649,0.898069436112777,0.673053929904566,0.410046993996521,0.126375129671337,-0.158125243902874,-0.423316349115637,-0.651179257616785,-0.828055644523956,-0.946463176234074,-1.00650597066784,-1.01675136161898,-0.993990298531137,-0.961172014070963,-0.943135449880098,-0.960315828289334,-1.02154036900035,-1.1183792361008,-1.22423665025416,-1.30008967803639,-1.30568761768455,-1.21208735111375,-1.01065018049914,-0.715500771301653,-0.359561770298494,0.0134978423912667,0.358813364339236,0.63961688227097,0.83480693844814,0.942865945000046,0.980344980356495,0.974922284206859,0.955634818427168,0.944296458528237,0.951220985219089,0.975915078108598,1.01108475595181,1.04725199670699,1.07572085896319,1.08915053414616,1.08063817026067,1.04288523298635,0.968424457187053,0.8508665145312,0.686660864357585,0.476972078948892,0.229282539824951,-0.0419842161056848,-0.316611196870987,-0.571671118389176,-0.785736201221668,-0.942938831629927,-1.03599877156198,-1.06801829014245,-1.05298323542133,-1.01438927341271,-0.981066753374419,-0.979973349563292,-1.0274134937587,-1.1217945645581,-1.24136974510668,-1.34884244562297,-1.40176809113925,-1.36496866494513,-1.22043781320202,-0.971915625930758,-0.643889756672503,-0.276213384195312,0.0844073735112796,0.394711156458803,0.624724547838439,0.764168234130632,0.823175204015405,0.827234064903297,0.808498904272688,0.796647876990132,0.812091333974692,0.862990988875113,0.945940030923274,1.04902492954572,1.15577017893662,1.24888248288607,1.31320188533237,1.33763743847155,1.31618140045803,1.24826615266379,1.13859686467858,0.99630464423262,0.83318796896069,0.661110214327553,0.489119796829097,0.321270328525802,0.156156768977016,-0.0114101766864367,-0.187228154705246,-0.374370222159398,-0.570794291812474,-0.768324203944385,-0.953223877559978,-1.10867943958866,-1.21907257311659,-1.27499666431779,-1.27740933447388,-1.23949552710898,-1.18526994552016,-1.14438887800755,-1.1434861496822,-1.19600283449678,-1.2943339381643,-1.408527913816,-1.49351196103228,-1.50269055976362,-1.40247264182263,-1.18217595008015,-0.856660558503104,-0.462388838825307,-0.0490259350153708,0.331608872178265,0.637466345581513,0.846250640407918,0.959938033404251,1.00164201880113,1.00590403185359,1.0066269950296,1.02757317215179,1.07825664805731,1.15508723137073,1.24579582456369,1.33482447522718,1.40779966407675,1.45401687175723,1.4668954329496,1.44320666794175,1.3821010218669,1.28457859711709,1.15346795408286,0.993559618598245,0.811407432839634,0.614499695608216,0.409951922853275,0.203261725476815,-0.00233707652152383,-0.205688556084837,-0.406730198659576,-0.604893295289002,-0.797287861501707,-0.977362211920972,-1.134829522284,-1.25737308376646,-1.33404060138132,-1.35951119986718,-1.33782612584099,-1.28397769968116,-1.22203619974521,-1.1792799284546,-1.17723505879806,-1.22242384169043,-1.30083363879729,-1.37933153205425,-1.41438085953064,-1.365015829538,-1.2051962144267,-0.931460324115395,-0.564339608761993,-0.144183523181366,0.27733667037737,0.648741084592502,0.930969996120893,1.10659185355941,1.18253651998409,1.1855178584179,1.15234214418251,1.11879132995443,1.11058076894093,1.13871542053122,1.19978887730948,1.27987881933045,1.35967862541067,1.41897750638451,1.43992062341288,1.40935751939828,1.32051220590691,1.17378570174799,0.976384679673254,0.740668783287423,0.481473979965353,0.213192837428878,-0.0522676772223722,-0.305966701566748,-0.541196758838037,-0.752437255484956,-0.934479257729487,-1.08175543126925,-1.18829837174482,-1.24928547227265,-1.26448682496562,-1.24214981362426,-1.2004775761125,-1.16433172876897,-1.15714969811264,-1.19096563545589,-1.25907256350257,-1.33516440844499,-1.37999741392089,-1.35317179381043,-1.22546055028564,-0.987401781709953,-0.652129470517288,-0.252742159782359,0.164563389342057,0.550367705057931,0.863176131049469,1.07892954704209,1.19564573285287,1.23154824314665,1.21766127497738,1.18777679462371,1.16916067801348,1.17665471693949,1.21140356573393,1.26366468400961,1.31770591621507,1.35646957672126,1.36465043927095,1.33023141325385,1.24524953481625,1.10638258398296,0.91541566044141,0.679304944741942,0.409533355017936,0.120665941067115,-0.17162476015291,-0.452396426269006,-0.708384975222265,-0.927948468476681,-1.10096686844695,-1.22001974701503,-1.28312822359795,-1.29677310101808,-1.27719436414399,-1.24846622763466,-1.23693098833999,-1.262932939626,-1.33234261554601,-1.43140321610935,-1.52787035954118,-1.57903183158401,-1.54416688889508,-1.39706779157358,-1.13440217460984,-0.777561183771007,-0.367912140507239,0.0429692468516614,0.40555896853183,0.684041417437367,0.864157867594893,0.954852227052807,0.983249400496076,0.984918384760696,0.992998365160597,1.02973026344318,1.10253359813027,1.20492401635802,1.32097804843751,1.43116913205233,1.51750660390478,1.56674519936195,1.57137140897885,1.52886668941448,1.44036917539441,1.30983605111529,1.14383361827374,0.951033689066373,0.740646537145358,0.520239481011464,0.294233686988845,0.0639907747317711,-0.170569582199948,-0.40847283417979,-0.645134986257848,-0.870788229341596,-1.07103519251571,-1.23005475497511,-1.33569847088026,-1.38468707989454,-1.38592810851096,-1.36038690129152,-1.33665954852929,-1.34259698833941,-1.39508553887907,-1.49167985164692,-1.60801032812023,-1.70305567316362,-1.73101019933243,-1.65532775821101,-1.45962498266492,-1.1521068312992,-0.763348692107076,-0.33918754704681,0.0694132774945957,0.417789953571617,0.677780417098225,0.843439494679268,0.929946902452001,0.966159661408364,0.984116697915466,1.00976359311436,1.05777655280366,1.13095520522221,1.22291452450594,1.32225138663516,1.41644936088363,1.49421914623217,1.54597059057032,1.56338446640152,1.53956734307601,1.47044718120049,1.35660289531252,1.20400219009121,1.02285686410166,0.825219619901182,0.622557038499426,0.423915346397787,0.234548871508717,0.0550119498474619,-0.118693723927171,-0.293326274924064,-0.475202835440314,-0.666745063450233,-0.864150025395752,-1.05700378964287,-1.22986862074057,-1.36545125361815,-1.44891252774234,-1.47271355495405,-1.44079572091963,-1.37026427018546,-1.2888992823053,-1.22809536529963,-1.21273160898915,-1.25113976817913,-1.32907033034137,-1.41083165330552,-1.44837426427827,-1.39569387249753,-1.22335641214472,-0.927971098717264,-0.533939737914391,-0.0877824899809271,0.352896834454162,0.73302286759909,1.01295241654607,1.17723709117404,1.23669602275444,1.22318452331021,1.17877479673981,1.14295942835357,1.14211216443532,1.18437003859368,1.26082106680828,1.35148824869075,1.43310564539495,1.48564356227231,1.49581071469045,1.45748402853228,1.37026541469771,1.23771737910825,1.06626368354828,0.864623534559205,0.642900373255725,0.41084331447034,0.175922893023081,-0.0575239570726915,-0.287364837164138,-0.511457887673614,-0.725533468506146,-0.922363442392045,-1.0923853523069,-1.22524399089876,-1.31199773222023,-1.34816229403411,-1.33719248475475,-1.29276239204969,-1.2377094424278,-1.19856400180906,-1.19672300636211,-1.23934725516409,-1.3138219981741,-1.38864182443931,-1.42123776957505,-1.37045445203297,-1.20930728879239,-0.933558669523032,-0.563735238378296,-0.140815122556372,0.282871437360694,0.655687305432407,0.939083582079503,1.11665129253703,1.19650545629217,1.2062399517443,1.1828015879513,1.16117032656357,1.16528928839947,1.20336162048438,1.26828530657817,1.34253813841882,1.40525062418456,1.43845264647662,1.4303784918924,1.37564989414798,1.2736653685822,1.1267821095993,0.939180152370967,0.716490561984226,0.465895604459735,0.196346696835399,-0.0814380085651915,-0.355309554553371,-0.612166991469242,-0.838500982000478,-1.02140534474759,-1.15060572000359,-1.22143251665268,-1.23776209883516,-1.21349755025555,-1.17132284623881,-1.13809841222526,-1.13737565731225,-1.1809434927038,-1.26244715573579,-1.35624738269329,-1.42318046505386,-1.42187675645949,-1.32156409794093,-1.11160508559562,-0.804753878993377,-0.434017856673943,-0.0449613743411831,0.314323977435374,0.603552409901494,0.798853895128659,0.897492626348351,0.916845850659991,0.887506644856513,0.843033916671048,0.810107708369844,0.80242915960274,0.820045407402743,0.852904816402974,0.886196980919199,0.905351723084215,0.898932416738371,0.859262555603099,0.78269682483121,0.670650501348031,0.529808920432527,0.371273391445809,0.209752354425253,0.0603920300986033,-0.0637952281785857,-0.148710572027587,-0.185354495843425,-0.18103033499769,-0.159867891660305,-0.173397477936237,-0.2769930480525,-0.484842944989499,-0.76663105642585,-0.943433844651025,-0.748886087877406,-0.346560711318566,-0.268421772290595,-0.47254230869659,-0.364890438453197,0.0884270315076257,0.342762583321032,0.222969913751859,-0.0112798872827897,-0.182984047377781,-0.259458590611799,-0.248051986335702,-0.193130032434547,-0.131994730843886,-0.075709635965493,-0.0241598433442023,0.0354886253869428,0.112776100507788,0.19993897658838,0.277801116346078,0.304718206109554,0.23606206888021,0.0654278729393261,-0.174748333436311,-0.31269575588999,-0.0942205321239826,0.319690686923425,0.414733329165747,0.233347339040099,0.349674228775806,0.794289887875629,1.04075620385677,0.922046146577381,0.688933449013174,0.508302202638835,0.405787906848205,0.368702002876789,0.349960093127034,0.310269691190664,0.237289653436194,0.13101435844798,0.000487919991058682,-0.146661057054157,-0.306819452888514,-0.472739640438671,-0.632689313346043,-0.772836896809777,-0.880129729697571,-0.946967926408516,-0.974848736811077,-0.975244452452096,-0.967855447140738,-0.975336476065117,-1.01471076670061,-1.08876148237672,-1.18170321587551,-1.26155586440991,-1.2889415357356,-1.2290276011658,-1.06176801734823,-0.787552955549691,-0.427794314077135,-0.0208973437018594,0.385605331560013,0.745495779182413,1.02438254084285,1.20689275758988,1.29814952114141,1.31948823807655,1.30042985660634,1.2699044766599,1.2494674782293,1.24993848743413,1.27139718227653,1.30546177617029,1.33854343035702,1.35519409684606,1.34098703927233,1.28443880307902,1.17783919627292,1.01752256000866,0.804376376119804,0.544696992293716,0.250534915124262,-0.061347465369288,-0.371775594372142,-0.661733970291445,-0.914334085682666,-1.11606845162312,-1.25793316758242,-1.33704082480464,-1.35863693668968,-1.33747952496056,-1.29703669834286,-1.26534029357757,-1.26755148618061,-1.31696294570208,-1.40770571289923,-1.51288215550182,-1.59022518142148,-1.59399730377816,-1.48875180308502,-1.25990279159269,-0.91799350806674,-0.496382159376223,-0.0438827703815677,0.385700175714082,0.745216652297469,1.00462818125708,1.15738989729391,1.22036619299552,1.22690319832456,1.21543097830034,1.21783954287555,1.25168187076961,1.31819836709088,1.40553542517579,1.49472208490608,1.56566602511252,1.60141462416674,1.59025504075312,1.52603539119918,1.40735130457817,1.23635562389471,1.01786555113375,0.758954250453017,0.468736566617908,0.158153624292812,-0.160066144567386,-0.471199679757697,-0.758580622997209,-1.00470318647504,-1.19382104344555,-1.31581760665598,-1.37041985946714,-1.37014196405022,-1.3400349097114,-1.31295063038661,-1.32065213651938,-1.38306453931253,-1.49937755087751,-1.64480899125991,-1.77522099119095,-1.83882950910139,-1.79125169288423,-1.60868854623641,-1.29499416563965,-0.881057978269754,-0.41752438811963,0.0368621752838079,0.428683969282401,0.722039990701499,0.906066405142735,0.995138718821618,1.02168879826547,1.02464563933754,1.03794905384153,1.08265565771668,1.16409166965305,1.27377113131614,1.39462024032766,1.50718810007021,1.59445984323774,1.64409554241059,1.648604738853,1.60476462033104,1.51318453914822,1.37808062322475,1.20679614431531,1.00865030800266,0.793181071345434,0.568304326881995,0.339004911925961,0.10702939863807,-0.128176467964265,-0.367432657555612,-0.609299670941359,-0.847919080073284,-1.07208470759848,-1.26625664672603,-1.4137553747481,-1.50156441297154,-1.52544036093021,-1.49367151790248,-1.4277807069166,-1.35887303119454,-1.3195435999179,-1.33310354204566,-1.40353009789987,-1.51022565736411,-1.61084447943479,-1.65268764880372,-1.58908127223349,-1.39425987096394,-1.07116866856099,-0.650619289133417,-0.183714015895626,0.269855799914207,0.655526809167352,0.936833068786369,1.10367175381398,1.1725530852788,1.17859746243535,1.16263170843523,1.15853710162721,1.18516057610596,1.24450800239669,1.32532648552576,1.40968732832902,1.47980427114883,1.52275736905604,1.53197351852469,1.50588461657226,1.44532903789229,1.35144199111388,1.2251074514801,1.06793535194535,0.8837218409028,0.679070568221373,0.462512472726271,0.24250991842635,0.0253901974296955,-0.185772628609406,-0.390831234264338,-0.590976124534438,-0.786544878522485,-0.97495587356119,-1.14934077433086,-1.2984854526609,-1.40879725598646,-1.4684808591458,-1.47276987261372,-1.42799450234851,-1.35246620814979,-1.27325686793251,-1.21908850056823,-1.21075201920374,-1.25197840355155,-1.32467231584282,-1.39156726115833,-1.40642464954111,-1.32827106959001,-1.13415037014778,-0.82594997783879,-0.430073998798986,0.00862751571811348,0.436669647515159,0.803775038797612,1.07452768728409,1.23653088834387,1.30188963683653,1.30115099515823,1.2721426936511,1.24821631928996,1.2500212638346,1.28273946181173,1.33828281980638,1.40047066143401,1.45087581618107,1.47352379444794,1.45754502672885,1.39778548931265,1.29395271875524,1.14909964565704,0.968202265065807,0.757229823734165,0.522606629397832,0.270785809752997,0.00795819397869826,-0.259748302341919,-0.52536528158629,-0.779838418256348,-1.01132153912176,-1.20587186933683,-1.34976565580826,-1.4328805908864,-1.45229874741542,-1.41534163542045,-1.34095045672324,-1.25775456631969,-1.19757322672246,-1.18521424181898,-1.22813032376083,-1.31066414045418,-1.39615982868964,-1.436858061711,-1.38805732380474,-1.22135408847154,-0.932719825157379,-0.543859906341065,-0.0976109999783652,0.351191644767051,0.747926494759442,1.05109432873945,1.24211290153121,1.32829216923559,1.33779112458342,1.30879469267193,1.2772929740453,1.2677001268385,1.28874463270306,1.33482852452996,1.39119834850436,1.44021100146246,1.46613270352767,1.45726655167762,1.40585719134844,1.30712318499689,1.15866042917956,0.960721497055649,0.717041865744777,0.43549655674409,0.128130360678983,-0.189417239733091,-0.498917738837167,-0.781001139279686,-1.01725579598451,-1.19316420657613,-1.30164745385199,-1.34623102941753,-1.34228263108013,-1.3150674754646,-1.29443716774152,-1.30709542857973,-1.36816301715189,-1.47436831270652,-1.60160774853231,-1.70911249656665,-1.7502346842525,-1.68652341765375,-1.4996421958359,-1.19680396878002,-0.80885943716663,-0.38287666099015,0.0284993353662431,0.3788817359951,0.638562805077283,0.800383378270316,0.879053762417842,0.904439412132641,0.911504797181714,0.930377535910213,0.979409701652928,1.06273416032524,1.17225413612442,1.29265410278997,1.40709414875599,1.50123040423767,1.5645152046316,1.58964856805985,1.57194817275788,1.50960676429343,1.40442317155797,1.26203974995947,1.0911394344705,0.901704769370578,0.702888000993867,0.501253690816907,0.300004836686108,0.0993351591618899,-0.102271970908753,-0.305998300423652,-0.510289242483419,-0.708980695247769,-0.891008030958642,-1.04223344415727,-1.14917582905421,-1.20384087899965,-1.20829670667546,-1.17709363332987,-1.13558371549371,-1.11329302109314,-1.13374280163845,-1.20438946123327,-1.31106834018174,-1.41983785061621,-1.48615381667794,-1.46822622482603,-1.33968831245034,-1.09735793135197,-0.762464509783268,-0.376197726603441,0.00890805173610004,0.340530749412768,0.578983464239648,0.706693749780128,0.730904230124448,0.678523566916538,0.585686898808709,0.48672067342628,0.406584725109922,0.357922485429292,0.341935763951314,0.352286187855761,0.380223314101156,0.419386380444346,0.468597233028071,0.529117760723392,0.597740916514394,0.655524315727643,0.655745929826823,0.548695326995786,0.345595946126695
