-2.03778281004201,-2.0853605197152,-1.18891682421731,-0.538798771912368,-0.599107545015201,-0.976607469523916,-1.32515853294127,-1.50946801055144,-1.48624543250067,-1.31785779405724,-1.11633492532622,-0.979944493678139,-0.965772515842004,-1.05964422604275,-1.20267624882686,-1.34550133352853,-1.47358907416435,-1.66090388658415,-2.00044544514829,-2.5079899889144,-3.14183852015667,-3.18370874063128,-1.52685473223159,0.410816922061684,-0.690923566081181,-3.95051318979673,-4.75551876417399,-2.49482138710256,-0.666537038946239,-0.638291409652279,-1.19672481106236,-1.57305002593462,-1.71014277926177,-1.62296123137937,-1.42366248436081,-1.22735249677915,-1.07851169233947,-0.985011280670811,-0.900330705763238,-0.770166616871335,-0.587523421198409,-0.387954058975762,-0.299026080923132,-0.444764757680343,-0.82878484138501,-1.37968956629264,-1.15038828730687,1.31733067150221,4.166751574705,2.98181346288886,-1.19265667716815,-2.31234245546214,0.572985705542815,2.99789114501213,3.14446872829193,2.51790051833782,2.07323473053233,1.86866629624443,1.88846533279602,2.00371117933347,2.08657968012069,2.0991258071491,2.04469548358981,1.98875314761405,2.00124052652187,2.08726438463575,2.18962660615272,2.12799532683037,1.72278532650317,0.958862698018797,-0.0418869930800769,-0.0525096377293879,2.76827421577888,6.15798876102798,4.60870759004318,-0.79544299979104,-2.68698005426593,0.338727716271439,3.01045514897533,3.03328246131525,2.11071928330728,1.37603988677615,0.913119621420289,0.703360692071796,0.583577647146995,0.39510239383929,0.107965166725114,-0.234759789688347,-0.534866771365824,-0.70652150911222,-0.719886554007483,-0.594504762543094,-0.397225276777482,-0.217453427594976,-0.12347781177399,-0.129181441429312,-0.187003599643413,-0.217411638122581,-0.159109142444631,-0.00565431889262808,0.193943839815974,0.366505505027127,0.45346762548719,0.433066354176875,0.318738669371841,0.142792149149081,-0.0613928894524816,-0.270418516944293,-0.473607013849484,-0.669425335749917,-0.858526406400789,-1.03720378875034,-1.19559558553946,-1.32243463990864,-1.4132402777657,-1.47596367697768,-1.52955659708356,-1.59566028481198,-1.68868915983604,-1.8109790642937,-1.95531121474728,-2.11049534291089,-2.26313756214638,-2.39313460411903,-2.46849192579666,-2.44918088983331,-2.30441065650792,-2.03545749964533,-1.68700372414063,-1.33335634987633,-1.04236980173616,-0.838311817787942,-0.689668068248871,-0.532133408728435,-0.311695866137029,-0.0188176946534109,0.306710137208164,0.599080241660779,0.800411957292104,0.885680696870785,0.867587589962131,0.782307585019595,0.666990594400295,0.54321228560364,0.414911010174997,0.278519729541105,0.135253821893784,-0.00398221803663647,-0.123639043938396,-0.213443472463386,-0.275170565111675,-0.321793948437702,-0.371315037607229,-0.441028869142776,-0.544526268278249,-0.687848708578066,-0.861197344811928,-1.03002915413719,-1.1360962523715,-1.11617909943793,-0.933932345811019,-0.607117707066665,-0.209339929694873,0.162151600397877,0.437923733918272,0.614746682265713,0.753532042845411,0.937224043915369,1.21758537659063,1.58514327286082,1.97710110747561,2.31284880530349,2.53360610677724,2.62521166056708,2.61515564327258,2.54948521527426,2.46550078320447,2.37661363272664,2.27599534432872,2.15260401182481,2.00607984520745,1.8501188646031,1.70372158003927,1.578192322727,1.46930693018638,1.35913049971327,1.22498674277278,1.04904425794885,0.823505748496526,0.551672834237897,0.24898216318196,-0.0537494812731648,-0.309067370929777,-0.462342682367346,-0.475924217252848,-0.357600406085161,-0.170732069620893,-0.00917048776434311,0.0540159521638435,0.0096706206179828,-0.0852431561766398,-0.148513490162272,-0.126612798088643,-0.0254359010924218,0.0977165659843477,0.169116664492583,0.135803151102218,-0.0133973687724368,-0.251760215747812,-0.538503556364356,-0.838983700972579,-1.13687288630392,-1.43048229490099,-1.69448421309829,-1.88748565736681,-1.99881485154301,-2.06415718710807,-2.23905387862281,-2.68482316156726,-3.4171341087434,-4.3496008183334,-4.25449630533669,-1.22768133663915,2.33986695332162,0.650888002348109,-5.06294238670848,-6.88307244381573,-3.30756362448556,-0.0571204103849251,0.303939479532425,-0.425451829564448,-0.975302686852708,-1.19675253192254,-1.07716485753383,-0.776998030681675,-0.46911045564403,-0.209685143524175,-0.000833455838798114,0.194783024410831,0.39984434232294,0.602890856145607,0.790047001883513,0.953271173836548,1.092746199245,1.2156103320974,1.32571054582487,1.41895938151208,1.48607753011285,1.51946674419128,1.52053708596535,1.50136103343799,1.47854907158101,1.46324857627305,1.45353896055174,1.43365272931169,1.380004019559,1.27027528378075,1.09164523088358,0.846423374059304,0.555070709846947,0.256544400217353,0.00420268024240367,-0.146157373201332,-0.157214564213374,-0.0330141148882402,0.171333256235018,0.367077655657664,0.475068700772087,0.471904662096755,0.406497305454701,0.370835419309592,0.44204809071668,0.635052379941725,0.896166298665243,1.13689369988503,1.28109114346005,1.29633406526484,1.19714680831526,1.02680599802125,0.833065426518389,0.650428355956656,0.493854911403194,0.362335433265427,0.247752126696658,0.143706917942047,0.0497377979457791,-0.030590977219212,-0.0947399992838931,-0.144515652571782,-0.185517747608259,-0.224348448725517,-0.26610260954255,-0.313370364279557,-0.366777937372125,-0.426105860760812,-0.490565979946702,-0.558040362909747,-0.624726448297143,-0.686179030024155,-0.738822581676093,-0.780503092388152,-0.810185701227827,-0.828245271101712,-0.83796536916068,-0.846828148284186,-0.865881681372013,-0.907283101100205,-0.980824777724674,-1.0887359657287,-1.21815973833682,-1.33504947116636,-1.38752334220074,-1.32409498269862,-1.12165255550516,-0.806861591808982,-0.45306754969741,-0.147632500941551,0.0543909306454744,0.160968262186087,0.236291979476889,0.359701973179802,0.577008056125718,0.874417117185393,1.18797678558196,1.43851245257931,1.56952781142799,1.56855178355876,1.46485981904841,1.30896105598388,1.14636920468983,0.999239983861713,0.864578938831178,0.727766663300929,0.580160541102991,0.427414397543937,0.28386196897806,0.160486135770942,0.0578819771428584,-0.0317957209490789,-0.118941000826717,-0.212487159144258,-0.318174582532018,-0.436610622380067,-0.561159839135018,-0.678613546658489,-0.774314233529685,-0.839452227353523,-0.876214222810242,-0.898060734562916,-0.925290925697922,-0.977680293010849,-1.06606901490331,-1.18440762034714,-1.30452342762281,-1.37828443673681,-1.35233811858461,-1.19400964181947,-0.915311873192947,-0.576515100853741,-0.260478723777056,-0.0296377065881055,0.107158968359212,0.195289302155584,0.302297144595467,0.475288675285337,0.714654088198074,0.977000141734408,1.20092116181482,1.33806751101089,1.37259704564799,1.3209207554916,1.21547688159979,1.08513508838665,0.944839345086798,0.79809307871183,0.645851143300441,0.49274176217901,0.346682452827886,0.214479511437983,0.0982718336005195,-0.00461691673546705,-0.099207850253419,-0.190050385603889,-0.279890521362986,-0.370504319725736,-0.46504458359876,-0.570010907392813,-0.694442436711413,-0.844697316246565,-1.01560071057825,-1.18236631073228,-1.30009125734223,-1.31588038929876,-1.19226400287694,-0.931822289580724,-0.586798274795091,-0.2412897980855,0.0297195060419422,0.200876335086627,0.308746139369244,0.425969156385307,0.613925805832106,0.884649442009697,1.19449870135001,1.46971352560739,1.64492472265074,1.69188587709816,1.62558879382487,1.48886172721688,1.32675014993132,1.16529532485467,1.0050916802308,0.830597857528984,0.627405880453538,0.396485642797561,0.157363495094563,-0.0610353200312209,-0.235885283346249,-0.362745103670749,-0.457764761498058,-0.549782416204831,-0.667858500271339,-0.830259107765082,-1.03757789736149,-1.2702997348067,-1.49141710214732,-1.65476152731716,-1.71790328268164,-1.6568066100688,-1.47820996684661,-1.22329816078667,-0.955528612432015,-0.732590823409939,-0.575983852799401,-0.459158629267426,-0.325614658504615,-0.126661581667263,0.146741471633349,0.458761831027261,0.750507957243805,0.971466949782679,1.10071643751396,1.14896063617172,1.1455039450152,1.12080117979978,1.09390511261699,1.06874385633868,1.03812159676704,0.991672744306779,0.923490706740865,0.83615678586496,0.739769008682012,0.646721272400103,0.565041254427746,0.494100179864951,0.425112963945966,0.345523577457911,0.244160262203544,0.115109506869398,-0.0396057545345024,-0.208984427119767,-0.376243022342392,-0.527576109972604,-0.662398267636546,-0.797370941460795,-0.959342183919047,-1.16936618663447,-1.42568524838746,-1.69481866796152,-1.9169261774449,-2.02608656803376,-1.9795156280537,-1.78321375510016,-1.49817200926199,-1.21681026377894,-1.01635828247168,-0.91530128499008,-0.863047721596665,-0.772756925685491,-0.576246219358139,-0.264386603837537,0.11053682777362,0.46575254504762,0.728525372038927,0.863812780772287,0.880060126010825,0.817089504932529,0.725768520153271,0.648421077473215,0.606135813989022,0.596496306023593,0.601481572906606,0.600471489140728,0.581396174368463,0.545647010525668,0.505960852276118,0.478598701996475,0.4731967794053,0.485995031567423,0.501430676647076,0.501635311705363,0.477063293753067,0.43072971505994,0.374021326658488,0.318250262445125,0.268674625931979,0.224471707400387,0.181196750580255,0.135889074308524,0.0944167865150492,0.0651125877604885,0.052272398418173,0.0489125350099372,-0.00247507168145906,-0.172426767991883,-0.44981674928081,-0.707618565889587,-0.607280040067123,0.18788951125797,1.71836352348368,3.74429327410644,4.18589583916387,-0.144048510284936,-5.83391217513488,-3.77602881479864,4.95630435229529,8.61939423660554,4.23554069832961,-0.181931483155222,-0.645681080917838,0.480588368985032,1.39608457616453,1.83761579136323,1.73384391434336,1.29931873424582,0.811835774101755,0.399013294068509,0.0993592749240598,-0.11836629743444,-0.287450764672845,-0.428550950859316,-0.581224199909656,-0.844732369412961,-1.30695189659346,-1.96150528144438,-2.74080868900358,-2.85518096492012,-1.08323439219158,1.07736359811377,-0.0273603610006526,-3.62935242424554,-4.8010640910183,-2.68274473726814,-0.859406142474867,-0.829351629692906,-1.3953002761271,-1.78549707633735,-1.94871420002492,-1.89792821533758,-1.7442691789528,-1.59972268513374,-1.4976961858814,-1.43324793095274,-1.36184214731434,-1.2445993642009,-1.08365510931387,-0.905741029350154,-0.785014587462926,-0.791326081514294,-0.93002379544958,-1.17301102750724,-1.00354309402808,0.40517779551006,2.05683749130342,1.506904975891,-0.693705930613619,-1.21647881689342,0.461545277550932,1.86845838632973,2.00285062746699,1.7043237938619,1.50375496624091,1.4330092826237,1.47930785963291,1.56246723232568,1.60135991973764,1.56919306893386,1.46719761976877,1.32023380533728,1.15427999579455,0.987620636851181,0.840267527805705,0.72802380785559,0.652205809472616,0.592299250528401,0.506824663819885,0.352816151590966,0.118191309405826,-0.153504642208838,-0.369123369873724,-0.429986863012423,-0.291606309939955,0.00118530733267097,0.331074383129587,0.569672178405667,0.645982322114475,0.579942944065422,0.462013656082722,0.394471831654207,0.433353358507297,0.565738874747896,0.729519350049943,0.854717303962207,0.897762559365075,0.852897215603455,0.742419013203251,0.597415288981662,0.441525030840762,0.285229370123503,0.130531139302876,-0.0202875082593864,-0.159408086325825,-0.275549817202068,-0.361360309237587,-0.419989613530773,-0.465267112710493,-0.514989744622925,-0.5821244393696,-0.669515057837361,-0.770301664743376,-0.872845315060596,-0.967549234329866,-1.05239015546286,-1.13372858760507,-1.22069809990421,-1.31554665770759,-1.40558240635939,-1.46192871273941,-1.4472822586821,-1.33154065890403,-1.10996559074172,-0.813692941967034,-0.502053773162265,-0.235454724148534,-0.0428941454116444,0.093340359970278,0.222671790672232,0.390405195621534,0.606744804724059,0.841343401592961,1.04368576678127,1.17235858473112,1.21392192784312,1.18236082901146,1.10375995681242,0.999496364187515,0.879972046447146,0.750783108147959,0.622347666483781,0.51162377134501,0.432530672551488,0.383025574476949,0.341569408834768,0.278981211986669,0.178299971179913,0.0471387505007555,-0.0878438364943611,-0.20074132679753,-0.286366779106203,-0.366929222554286,-0.480915369792995,-0.659678700879939,-0.903848890102643,-1.17307899064254,-1.39715478252809,-1.50527745337087,-1.4597893279607,-1.27705034179153,-1.0228034180859,-0.780886909517129,-0.609840669317724,-0.512926035593786,-0.441466169602336,-0.329272833210292,-0.134606910065958,0.1366389106315,0.437348700605139,0.707043842323146,0.902961971826127,1.01726182351357,1.07276797328329,1.10282480892305,1.13011501076789,1.15776410248957,1.17504416408829,1.16951062740465,1.13583522210177,1.07738122704329,1.00215371282757,0.916374341080951,0.818970835196662,0.700764558508146,0.550771403032475,0.366999844123021,0.164079810755633,-0.0295315507289623,-0.185541336845876,-0.29390892180446,-0.373719017287315,-0.467678661934562,-0.619944574011911,-0.848562593446588,-1.12917369512385,-1.40011575432098,-1.58623025517782,-1.63011958282638,-1.51823131934993,-1.29083722600919,-1.02869556597714,-0.818150810693019,-0.709303044142909,-0.689823682232843,-0.691564060148656,-0.628826124381581,-0.446877466258581,-0.151830495203922,0.194673518103032,0.509494093477219,0.728193055825809,0.829481916562804,0.834909151498068,0.789542342650287,0.73765418190004,0.705862571042615,0.698055162988903,0.699493822629934,0.686291797394786,0.637853766232363,0.548860234201989,0.434926106634465,0.327343998058856,0.258479894495669,0.245386718027208,0.280220312834806,0.332377800689782,0.36191691496754,0.338548952006801,0.256723372347457,0.138092729160661,0.0197257676222178,-0.0644146119226462,-0.0976152454645024,-0.0837157169904315,-0.041257903175335,0.00486263591362671,0.0289333134410056,0.00722067602513327,-0.0783552770393504,-0.233861960395127,-0.446885446310612,-0.684516465412607,-0.898682541836098,-1.03848820898585,-1.06653041407402,-0.974462469973721,-0.791550525360701,-0.57900902488248,-0.406423330213107,-0.317429235233096,-0.303720523616232,-0.306565445841554,-0.24873693221105,-0.0786617707826803,0.200085774243291,0.530515051790265,0.831389333370537,1.03485688917258,1.11229864335773,1.07841054840295,0.976580138060926,0.856465833678024,0.754717185545142,0.685266420140966,0.64098478770894,0.604363094134813,0.560677451955004,0.505672657382188,0.444078977775086,0.382422376129754,0.32315537321844,0.264353325350061,0.203423610051743,0.140039844744586,0.0755236981033568,0.0104349925971943,-0.056321792189956,-0.126469222707266,-0.201408498563739,-0.281678300123721,-0.365291517420462,-0.445715451141881,-0.513169928019567,-0.560681926825229,-0.590896173459474,-0.618014576970578,-0.663214671571538,-0.746286094762966,-0.876838288626008,-1.04691822740173,-1.22682164764636,-1.36768280154746,-1.4149148684429,-1.33193287606415,-1.12398163082632,-0.844905594245278,-0.575499348320057,-0.381198006982942,-0.275186783458889,-0.213005688751148,-0.123202121776488,0.047494142010932,0.30430453946929,0.604906154574414,0.883528607529613,1.08111905788134,1.16722681177252,1.14732062690665,1.05526872137594,0.935132504479996,0.820952001113993,0.725033365686725,0.640469435362387,0.554199978275567,0.460217296949258,0.363813754530281,0.275518884542332,0.201225893211745,0.136876894573254,0.0709959556916953,-0.00828699373232527,-0.1070896604632,-0.223224383837879,-0.347267979139694,-0.466485803694211,-0.570049025505813,-0.652884418739564,-0.716241432298505,-0.765718678168912,-0.809148972572448,-0.855659414581327,-0.914930355191452,-0.994687559258189,-1.0957478359868,-1.20637182037523,-1.29935760771028,-1.3355033497613,-1.27563782429303,-1.09925649746192,-0.821247239482112,-0.494275880724047,-0.189346079840366,0.0392154178687969,0.18440289405541,0.291373495350758,0.430452190665423,0.654385572770526,0.966812624148101,1.31997442310126,1.63976994681171,1.86137397888782,1.95661268775336,1.94162031511219,1.86349178635444,1.77425613952764,1.70665582363702,1.66473681263403,1.63224671723561,1.58990020774325,1.52820267070224,1.44874960559883,1.35730689142432,1.25728237931372,1.14902362569994,1.03327364752858,0.913457867987264,0.793997575576059,0.676416440986694,0.55657377112539,0.424716231124368,0.268283984905079,0.076892963213439,-0.151570892640972,-0.405734104318231,-0.658725656419999,-0.871228120634072,-1.00091750398191,-1.01823752644574,-0.924199347574545,-0.75985443518767,-0.595671502370018,-0.499012621060295,-0.496092892378503,-0.555386263903415,-0.607787280809528,-0.591374608311592,-0.490241302079795,-0.342876375213145,-0.217404140196354,-0.17405032739644,-0.239343646331743,-0.398470190226292,-0.61085884860932,-0.833776530823274,-1.02081651285827,-1.13953466826056,-1.19902658729578,-1.24359189092141,-1.39388786442152,-1.7605006854456,-2.34153316586225,-3.0678288157531,-3.02330670632235,-0.776655846044995,1.91004128569397,0.730825054061715,-3.41048372887034,-4.68176621833689,-2.03222521464773,0.30859844794539,0.529906382477335,0.00906982280901201,-0.351206062410624,-0.486491454052053,-0.399168942540603,-0.195888533655356,0.0144166022233766,0.200555276618996,0.35616824680801,0.494851481299762,0.62079302353362,0.723011036913852,0.800122590696417,0.860109141976036,0.91365104906226,0.968270570301259,1.02225714089855,1.0676333297741,1.09765300500471,1.11102965485907,1.11078797834763,1.09989034097711,1.0779021664739,1.04023348238509,0.978337278094088,0.880562414234841,0.73576881715267,0.540452846759417,0.306619219333429,0.0659600397542396,-0.133573247721961,-0.241392537702268,-0.226738864876968,-0.100379163165256,0.0806794126922242,0.236164883926893,0.305224536537691,0.282926342576066,0.224525855026164,0.212184829060768,0.305027209194689,0.504260591818516,0.753229313025447,0.968796623308102,1.08278991084222,1.07023661722869,0.952797170035955,0.781090304391933,0.60873331575727,0.471240589231774,0.3776117904049,0.315341735940528,0.263433021628771,0.205228102593913,0.134877284161211,0.0565147724422878,-0.0204036494278015,-0.0859187080748856,-0.133447263654532,-0.162776256503273,-0.180858613670904,-0.198825961788431,-0.226440145628256,-0.267653168876322,-0.319769437726604,-0.375830529432839,-0.428459891705088,-0.473301512780885,-0.510184267084362,-0.541080189039431,-0.56639676705404,-0.583146926543105,-0.587451166191514,-0.580094020953888,-0.571054920302911,-0.579364306893905,-0.626957929981958,-0.727657846986897,-0.875209913894232,-1.03682513376815,-1.15815721947757,-1.18107948584636,-1.06930094266086,-0.831052862096376,-0.524655872886666,-0.236849154994301,-0.0394934332831059,0.0506730723859088,0.0809333612177858,0.131832606000463,0.266681422044107,0.494070303313047,0.765044617652958,1.00264413888243,1.14253082037798,1.16068246777971,1.07646313242071,0.935503354373866,0.78533880931964,0.655747177529494,0.550914977593217,0.455612446998192,0.351416278614458,0.232820394500366,0.112457569091638,0.0122802717852008,-0.052100217119159,-0.0821204358552845,-0.0947069508906716,-0.11071109168413,-0.142656968134536,-0.19043298363975,-0.246237521222244,-0.302638320179632,-0.356415842395266,-0.406390350582887,-0.449621142096059,-0.481107416191395,-0.497594328261652,-0.501404719737359,-0.499825750808517,-0.500004357059494,-0.504439023813386,-0.512113384045987,-0.524404127239737,-0.549573330498169,-0.600351697961411,-0.684201829812465,-0.791199575660231,-0.887887409820568,-0.924600062438867,-0.85671520438793,-0.670131797859245,-0.395358177862316,-0.0983341163293039,0.150916349861232,0.315327945165648,0.410226780327295,0.491256534594886,0.618006323126777,0.817126605050779,1.06727890845685,1.31178424066258,1.48822881722061,1.55785156500336,1.52054264272114,1.40944961405794,1.26980208800594,1.1353079801091,1.01605972121771,0.902939939113193,0.782056121965873,0.647650722852196,0.505715333120286,0.368558344783246,0.246350746151249,0.141847965867499,0.0504206768813141,-0.036606550889969,-0.128376220097597,-0.232121385074832,-0.351649185775204,-0.486010876598563,-0.628653985438632,-0.768491492969248,-0.893981560653288,-0.998891986245354,-1.08617672653901,-1.16712809605511,-1.25591771697003,-1.36146911886422,-1.47855486594308,-1.58101200780316,-1.62321563656843,-1.55634818354515,-1.35714685104396,-1.05215221953522,-0.715020430266154,-0.42973011712047,-0.240305077091332,-0.123430929290766,-0.00636009775027732,0.181962398499501,0.46361832603212,0.79957692714514,1.11546419814287,1.34301579097581,1.45090480350858,1.4517518007609,1.38783897004737,1.30656815179957,1.23816206295036,1.18574757346502,1.13172914475821,1.05489847670334,0.946359644089047,0.814759709919648,0.679599538121151,0.558414202130424,0.456105191615139,0.362866838353238,0.261627048324268,0.139463864414861,-0.00507410667048157,-0.163311528036076,-0.32449690802645,-0.484055391170009,-0.646147404420356,-0.81954134002706,-1.01025366616817,-1.21458735543595,-1.41417632588122,-1.57497656638245,-1.65423478116188,-1.61764452639654,-1.46077749561329,-1.22064934941081,-0.964634006466025,-0.75763389069174,-0.625685255483449,-0.540792865212818,-0.439762016737956,-0.266007245024822,-0.00640015472061014,0.300482927409301,0.587146019705711,0.793666845704123,0.895900645810374,0.912168485127202,0.887911721886651,0.868389378043058,0.87557446735281,0.902971550664298,0.929368636538718,0.93831896589584,0.928067465748879,0.908202046185845,0.890816182963597,0.884185554911072,0.890237065640399,0.903933493341831,0.914466576946446,0.908675021770999,0.874882426503139,0.804922651247353,0.694790771177426,0.545987305578607,0.367814968662986,0.17809431701161,-0.000766062465367379,-0.150758525035467,-0.268448753550539,-0.369951249214549,-0.486337641163676,-0.650398265476361,-0.880178655497851,-1.16599758588283,-1.46645720592802,-1.71668253522256,-1.84874549970539,-1.8193831925116,-1.63432720430989,-1.35490806440186,-1.07639003251214,-0.882093983326117,-0.79686584677338,-0.771499344418007,-0.713235364235436,-0.544607719315816,-0.251137967880541,0.112136241345005,0.453872684444266,0.693135696177062,0.792484397141308,0.765664995774254,0.662858178224641,0.543799206427825,0.45162552176752,0.399001576545637,0.371487448898299,0.343771258639159,0.298320331267039,0.236291218187796,0.175633618088736,0.138615072663875,0.137431982871014,0.167675431194597,0.213200953605424,0.257167828142862,0.290317201758626,0.311623378078681,0.323713063194405,0.328936040460376,0.329092847947242,0.326785211680552,0.325065765368667,0.325117622111411,0.324558741254328,0.318438985528636,0.302413864255772,0.275747940594559,0.241813907204853,0.205284719207216,0.167353304389165,0.121608343225305,0.0530877505886338,-0.0574876376772535,-0.223498613392661,-0.439165175960261,-0.670926300051508,-0.86167227120902,-0.950223972848801,-0.899669183473597,-0.720844068954387,-0.475358637030084,-0.250247473482504,-0.113378128307051,-0.0752282596650636,-0.0833923754997148,-0.0557702257799526,0.0688728294596086,0.295446000582472,0.571556235165715,0.816808606567772,0.962563001965333,0.980942013085623,0.890497394368498,0.739010015491924,0.575991832936398,0.431672798940603,0.312324485362048,0.209574039162021,0.113798458532906,0.0226024956474006,-0.0588762786371469,-0.123375822433222,-0.167187861240947,-0.191758770734901,-0.20129149275816,-0.200181422053894,-0.193193368388848,-0.186877635433869,-0.188634559203413,-0.20298053631222,-0.228590629908549,-0.259133151352341,-0.287014527795997,-0.307097210028839,-0.31849872484106,-0.32410378855889,-0.328274283616875,-0.334160120647485,-0.342630102797506,-0.353920530245884,-0.370805319728625,-0.400428888110574,-0.452829474780509,-0.536790054967125,-0.654819257001771,-0.797905165308401,-0.940680681013966,-1.04105617202705,-1.05068607741229,-0.937193984640836,-0.707427782815628,-0.414034724387579,-0.134586062382443,0.0689715357475984,0.185734712108575,0.260756724938991,0.364129670663589,0.545182572652292,0.802560701763822,1.08668376012699,1.32784205855342,1.47026327396284,1.49451871007448,1.42017826925483,1.29057753381,1.14919624570202,1.02045855750422,0.904568648018812,0.787235526775052,0.65609826604967,0.512389039189701,0.37089013675539,0.249884322051705,0.159159100619833,0.0941644174584951,0.0392057114114949,-0.0234332302430349,-0.104447369689417,-0.203579203063097,-0.312225110246934,-0.419685184425393,-0.518021896589251,-0.60278070113021,-0.671386215091715,-0.722762039725123,-0.759225016893969,-0.788627423557272,-0.824136990587422,-0.880492052983447,-0.967495903094234,-1.0830232576897,-1.2082736413127,-1.30759786759582,-1.33511117735759,-1.24993606826223,-1.03778593825608,-0.728010366927626,-0.390253839688708,-0.103920082080885,0.0854409979047289,0.193568940569231,0.286840900720921,0.438490690534484,0.681149710017932,0.986851506138591,1.28452190010882,1.49975991905133,1.59102795455854,1.56363630608037,1.4585013748184,1.32589889890784,1.20018800756768,1.08871054071697,0.978498870913933,0.853439086967236,0.709084283267737,0.555697043861528,0.409361522475913,0.279351022161413,0.161683830392476,0.0432221948838483,-0.087672912475118,-0.232551945901464,-0.382596899042304,-0.52614963689267,-0.658092244469569,-0.784370277170609,-0.918624344521369,-1.07343754652546,-1.25209623755734,-1.44506844690793,-1.63065659558188,-1.77715055774941,-1.84679553800065,-1.80548101908438,-1.63938113000047,-1.37055787707384,-1.05706189951279,-0.769536725471655,-0.554304014014683,-0.407244486086262,-0.278224487576681,-0.103963003964153,0.152861253376437,0.482155042600224,0.832212963921435,1.13623355808122,1.34390945452758,1.4416306059426,1.45199640779797,1.41570167118455,1.36874878163514,1.3283949493297,1.29302797580099,1.25173788227234,1.19545678582647,1.12342264262726,1.04248646828256,0.960624208408123,0.879761779177908,0.793774505354158,0.693010212024157,0.57110699445019,0.429074619035894,0.274831466138552,0.118991883208575,-0.0314036528082435,-0.178463032350295,-0.334565619890527,-0.516627239244434,-0.735124478311142,-0.983233275153508,-1.23199321055585,-1.43504354808315,-1.54307482322781,-1.52433670151148,-1.38334976411787,-1.16709002714563,-0.950043881229285,-0.799720205626692,-0.739398585396599,-0.733010508611665,-0.706218434677285,-0.592356398647312,-0.373116697641919,-0.088513724052427,0.186699136950846,0.382394738719071,0.465196704193596,0.448352427744154,0.377493240834705,0.302946614437182,0.255801062786964,0.240466005712712,0.243749771667397,0.250204867637428,0.25294157030461,0.255501582503371,0.26678366802514,0.293849391540302,0.33706459466122,0.389772938155377,0.441762685479083,0.483848084328132,0.511086440164097,0.523582437594891,0.524928237376026,0.519044474888975,0.507043714605675,0.486122560665987,0.451500243669743,0.400379556274619,0.335233296996318,0.26379435230423,0.195207690961762,0.134625694255046,0.0798932006862531,0.0222923465792358,-0.0502684171306665,-0.15076113611041,-0.291431659332377,-0.479516044677232,-0.70832730666016,-0.948489996246635,-1.14836821908729,-1.24910394556466,-1.21071731853714,-1.03718075337626,-0.784424667357246,-0.539973176109646,-0.378829305193096,-0.31998625718279,-0.314134580303158,-0.274755862287504,-0.133238567934043,0.119334711090367,0.429543572862633,0.714192913000406,0.902474195100035,0.963149629961959,0.908171084480267,0.778662701713743,0.62426174137804,0.484933276464404,0.380567135478749,0.3101995267651,0.259534040005816,0.212503919949517,0.16091858765244,0.107309918383208,0.0604205089930672,0.027869223172346,0.0118747627635727,0.0100961128693857,0.0188625349824277,0.035085438138695,0.055740972396957,0.0763292757281238,0.0901537261027463,0.0895558435945588,0.0693222548827614,0.0307683719416551,-0.0169358807890928,-0.0607707697750518,-0.0912031387042369,-0.107188617509378,-0.115082814613158,-0.12323750855129,-0.137526935087224,-0.161881132262847,-0.203249517391784,-0.275153991881253,-0.392991001314598,-0.560883101051725,-0.759205840509078,-0.943656053124692,-1.05853036005689,-1.05795305173619,-0.926562266808407,-0.692012876788096,-0.420872911030404,-0.192446172628742,-0.0584360068859679,-0.0122365486921128,0.00842932836195533,0.0837795939762887,0.263450480592666,0.538037994007002,0.845082879698797,1.10147799553449,1.24221330292087,1.24631570342383,1.13982904262526,0.977509237080593,0.814632450344462,0.683824032713187,0.587796454997922,0.509153245017725,0.428187300587022,0.335997811295054,0.236123606792697,0.13774556755081,0.048576576101376,-0.0275007358843607,-0.0893652373894768,-0.137974616231366,-0.177130392721635,-0.213761571172182,-0.256124654940469,-0.310258237474618,-0.376419707761065,-0.447887107930276,-0.513649398913239,-0.563748252884446,-0.593897929740653,-0.606761814150286,-0.609653827374376,-0.610377040659756,-0.613982522653849,-0.623043367119199,-0.641613614872388,-0.678965294786683,-0.746852343186903,-0.847584012139303,-0.95940938956633,-1.03290867105701,-1.00814210128399,-0.847548311069582,-0.564968930785642,-0.228610882668858,0.0703911984473261,0.26827224703645,0.365040466091917,0.420565898042405,0.512705783616859,0.687547792639569,0.934590301437158,1.19777799971784,1.40860895992281,1.51872404698083,1.51669519171169,1.42580788020211,1.28797740858873,1.14282966269433,1.01200472102386,0.895827031573491,0.782105195211057,0.659596152519245,0.527326532908271,0.395373843286033,0.278212484002091,0.18521064429937,0.113921926973923,0.0503327036078113,-0.023786500928055,-0.12095984595027,-0.2418781857602,-0.376463278276899,-0.510202607388728,-0.630860578302963,-0.732018189985938,-0.813338628095834,-0.879686986315687,-0.940789102072169,-1.01075512741036,-1.10464899594435,-1.2298168730273,-1.37403688447388,-1.49854834180211,-1.54596129535266,-1.46577041683215,-1.24596560657794,-0.929424031629564,-0.599322279564989,-0.337262788950331,-0.177710494611997,-0.088313466274055,0.00841222144101773,0.184073101238458,0.457847930646998,0.785296172427581,1.08696469932655,1.29377928132217,1.37942960439889,1.36439218783872,1.29581765285421,1.21868287113552,1.15440091618111,1.09686024080358,1.02544131976534,0.924488722136575,0.795733078926565,0.656624989740792,0.527998687743548,0.420988480308045,0.331828588905944,0.246145690553256,0.14783437908353,0.0267722859276864,-0.117029240700498,-0.27332839663214,-0.426571607982843,-0.565353812354737,-0.69151365045465,-0.821509012609476,-0.976550259615261,-1.16597800102727,-1.37396918138412,-1.55834313306046,-1.66382398401887,-1.64543101562595,-1.4927057162845,-1.24229704018605,-0.967984151854355,-0.747459009900624,-0.62127810070048,-0.569542322317103,-0.524280863608803,-0.411805633142368,-0.197551687970569,0.0949908888712192,0.399691820557301,0.643462195332054,0.779857966706383,0.805214798470941,0.753929035805645,0.67837174609873,0.62367843900127,0.609316822598431,0.626352769077934,0.650799989920891,0.663486017325594,0.66278171404235,0.662412874081857,0.678267616758539,0.715599311093132,0.765393089334804,0.810278865673801,0.834402966205012,0.830910446033359,0.803150200617984,0.759697894880312,0.707300779559659,0.646987200210408,0.575530400755731,0.490159398529158,0.392623087570151,0.289673456736331,0.189070775380389,0.0929455298561788,-0.00685438794493224,-0.126637356793625,-0.280888049571734,-0.468387182237919,-0.661906478185284,-0.809911734450333,-0.855159125641389,-0.765278798463837,-0.558623831876626,-0.305048775223906,-0.0934954761037123,0.0180895493537172,0.0375198518710744,0.0315810177285756,0.0810940924813448,0.229340363408278,0.457648985064643,0.699214527364794,0.876679548387161,0.939304527991804,0.881833817496928,0.739607778462048,0.56617717067811,0.407127845650775,0.283578081644605,0.191146152528428,0.111039290408668,0.0247606826709915,-0.0758822400574219,-0.187154432490743,-0.297945880440814,-0.395908336381811,-0.472514503310514,-0.526352640081929,-0.563800898890566,-0.596171125828904,-0.634395260007986,-0.684714344817263,-0.747737947435693,-0.818956302120767,-0.89064708863144,-0.956658139079926,-1.01386317739431,-1.06406604496231,-1.11138149094623,-1.13839067551,-1.11388374355235,-1.02802988286919,-0.906136523004935,-0.864390799298639,-1.03773381096635,-1.47506299359595,-2.15973050099543,-2.23915291844157,-0.241517890895127,2.4258296091903,1.74204043794503,-1.8333220284039,-3.12877375381894,-0.94841354340542,1.08376522221016,1.30581429118765,0.873119046140803,0.558163878041985,0.409332031249951,0.427532198654865,0.518154218959591,0.578171200893282,0.574691589075251,0.508120616260757,0.430060991994347,0.399023646116783,0.429159679671689,0.495008698826918,0.485830730522354,0.282664324447829,-0.141418655619972,-0.754899482091857,-0.765701482452719,1.12722078419448,3.47472081901004,2.5397603647582,-0.976169762810308,-2.07689676982222,0.149271765763008,2.06643634108998,2.13841567242346,1.57648311095444,1.15957979442444,0.932927268115772,0.882385259428043,0.900404864397485,0.8811876861816,0.799171624808051,0.665624952247626,0.518427956611793,0.385031670081851,0.267408571811189,0.160078779220866,0.0531084655737638,-0.0663509912763081,-0.210546085223961,-0.388305577371949,-0.596157685508852,-0.809381893440233,-0.982691840859289,-1.06447471448956,-1.02101749094508,-0.85873823319068,-0.629479690715067,-0.410259723972663,-0.263762145944301,-0.202159707039281,-0.180291989907044,-0.126061665661905,0.0118909343487562,0.232071257253486,0.482997727945337,0.694448189459066,0.8141476827001,0.828999986922207,0.763105325974138,0.658339665770176,0.550860139347043,0.456407263156871,0.37035261050312,0.279553011546317,0.176740141292268,0.0676037173628329,-0.033379426870692,-0.113982595901016,-0.173428745392087,-0.223358044977357,-0.28047561964554,-0.356476979221916,-0.452012881921076,-0.557711253939128,-0.660462197880814,-0.750926026694735,-0.828447689055817,-0.901090144561851,-0.981321415784388,-1.08045407591392,-1.20417842894053,-1.34841007694591,-1.49457327196995,-1.60770948120554,-1.64337913828888,-1.56516977917169,-1.36620524323247,-1.08161270061985,-0.779743452182934,-0.530883374240605,-0.369043824545804,-0.27187638326112,-0.174504199480503,-0.0100154674395014,0.249170645284983,0.574620836657383,0.897996299321913,1.14730045953092,1.28074040620226,1.30099783186724,1.24642198135328,1.16760337754644,1.10276349428814,1.06390674006966,1.03936330971328,1.00898147051744,0.96068622586723,0.897485345878315,0.832289296354296,0.776846974902031,0.733826098209698,0.696909342982686,0.656896948135353,0.607651876795926,0.547437307321624,0.476517537073047,0.39509132195077,0.303849138886188,0.205503762179765,0.104241629211515,0.00246579495836564,-0.102722424679751,-0.220351738516096,-0.362299117783726,-0.53616839645984,-0.736522593346382,-0.938852527639933,-1.1014178166479,-1.17821067746953,-1.14130181875899,-1.00250176144701,-0.817537140068341,-0.66162809915941,-0.586192429188776,-0.585897970757099,-0.602067393447438,-0.561833270229508,-0.425467231690762,-0.210057358779314,0.0226200740167224,0.20142782227018,0.280809959551963,0.257797574629357,0.166822743091613,0.0588773638246017,-0.0232039144075475,-0.0613117531758217,-0.063205419831246,-0.0498617530210209,-0.0388129723901189,-0.0342699010836748,-0.0280336386632134,-0.00720948594189088,0.0377987456263633,0.108646806461748,0.198048957222669,0.292006082476292,0.375050352761247,0.436740000203374,0.475471049227305,0.496607751733796,0.506658162397367,0.508959480595365,0.504155683831147,0.492953101119634,0.476843996689086,0.456765039955855,0.433012639116154,0.407023168030473,0.381762918738064,0.358971245534513,0.335869713827601,0.304734994912709,0.255656372506864,0.180095308614252,0.0726764944758499,-0.0691341085002102,-0.244534197907416,-0.444626718495962,-0.644866869868103,-0.802668137580315,-0.868644089220801,-0.811405089565338,-0.642925428991558,-0.424419388025888,-0.240721446784283,-0.153247365344562,-0.16168643995925,-0.203158205077341,-0.192025269014437,-0.0738352284657534,0.142428424410862,0.392009814609577,0.591918045391784,0.681975500817411,0.647473772886091,0.517249041061783,0.34385216998321,0.177817780730794,0.048446251110258,-0.0405984580882456,-0.101789010654372,-0.149774945073257,-0.192426589272241,-0.2292910890375,-0.254484680345899,-0.261044599580204,-0.245239362323489,-0.209207114518709,-0.160267945160597,-0.107270589780406,-0.0567589116603093,-0.0117362375232003,0.026709543098354,0.057164165586758,0.077574696426909,0.0871576498809397,0.0880489899455558,0.0843974044867876,0.0798806523782608,0.0761840898511559,0.0726672297811863,0.0661081628928422,0.0516762713381012,0.0265963944049786,-0.00671030598747776,-0.043649283465171,-0.0861619337875813,-0.148226557334204,-0.24967950873235,-0.4001089215621,-0.584112497547879,-0.758961846064074,-0.867527386120678,-0.861289887910619,-0.724314213235821,-0.487379528359791,-0.221768800715355,-0.0090309032632313,0.101688776792172,0.122953852434173,0.122272838418706,0.180501473029386,0.342531760597588,0.591920104612805,0.862081146432653,1.0726411717687,1.16787897709078,1.13783853410911,1.01502462223885,0.852685045265316,0.698471877887568,0.576857643562888,0.486731201656458,0.411939582834915,0.336541521953826,0.255428652236778,0.175037525138589,0.105822147536688,0.0533810363506079,0.0149292199368277,-0.0174027877473714,-0.050619958355779,-0.0876623576983724,-0.128743609277897,-0.174721703970694,-0.228631259148937,-0.293511735887153,-0.368475223851846,-0.447274452140293,-0.521353783439773,-0.584532915330999,-0.63505103404638,-0.674235002568837,-0.704682098808146,-0.730700485079767,-0.760976918901064,-0.810526300326906,-0.897393776425394,-1.03143081648262,-1.19912683629628,-1.35583087647811,-1.43644019321161,-1.38465267010969,-1.18641638295197,-0.886281716048067,-0.571960326791008,-0.330837964909375,-0.20254287689153,-0.158209044756207,-0.120909949633557,-0.0135390421379877,0.196970079095402,0.484218617397138,0.779837563181514,1.009407293707,1.12611847193264,1.12685301813604,1.04650951796277,0.937001856870473,0.84266747551029,0.783166602537559,0.750673579308727,0.721555832156872,0.674998397026469,0.606832449634444,0.53060759365409,0.467092656376358,0.43031043631542,0.418748856959276,0.416191379950143,0.400915084074764,0.357498363829573,0.284478997276377,0.19408715389867,0.104983081040504,0.0323881406974016,-0.0193923282194615,-0.0590490041756534,-0.10471345154099,-0.176314122248162,-0.285956494262785,-0.428667444262204,-0.576834974001747,-0.683183256997501,-0.69594199545797,-0.583132670753695,-0.354193805503869,-0.0644450599893769,0.205104830637326,0.386304102576109,0.46068423003246,0.470419546661477,0.49283963793959,0.593252981836703,0.786812136772288,1.0318148308026,1.25366734272311,1.3820449266249,1.38188665811515,1.26519218805247,1.07940022137157,0.879164593316866,0.69824251891928,0.538636908959546,0.38197492805251,0.212240885015108,0.0329834482380424,-0.130971748685419,-0.246964867451992,-0.295454240194795,-0.285453117288568,-0.254763139352447,-0.253590717405793,-0.314788280385058,-0.435649817563442,-0.581535412443813,-0.687493252737765,-0.695318248772205,-0.603718242051137,-0.473289481225798,-0.470083943805005,-0.771891808685898,-1.44145316876637,-2.44626140159941,-2.77590286418131,-0.642263554323396,2.47804160044744,1.86609924082044,-2.33444912403322,-4.2715729885205,-2.1295569421571,0.244268852113381,0.745003017464324,0.411144616997407,0.071270054172825,-0.155416389617909,-0.199834413470792,-0.12080462293076,-0.0202656559026743,0.0506507573190881,0.0636120495712349,0.0418445834127511,0.0258365245829119,0.0299409206953353,0.0485160368813323,0.00585018403864037,-0.188477794433581,-0.559358769512743,-1.09759759802548,-1.11461935253598,0.558385801565704,2.64840470916879,1.82118023137832,-1.30667343796804,-2.27945624428215,-0.292237264757935,1.40380696566669,1.45340627504532,0.95540295652303,0.600511785000386,0.413812907759739,0.374692310111739,0.387769786116472,0.363656513865601,0.282017484097193,0.152157731114987,0.0236782590019955,-0.0559324355236212,-0.0853822262873643,-0.0995758204645179,-0.204310090059154,-0.498895201315061,-0.984934742995715,-1.60434377941379,-1.61422052365451,0.127999878006145,2.18356756006477,1.13773002321741,-2.16371197506527,-3.03730099606759,-0.823463802670618,0.963573058264396,0.953330822458662,0.374218087518446,-0.00903549473523231,-0.153729702264737,-0.0881672196752665,0.063168699115059,0.180266594681219,0.224718792032666,0.200009472905186,0.156552385594189,0.147352618962643,0.187009706126269,0.260152938394836,0.281837386352399,0.154275384192122,-0.153605748972729,-0.62861855526242,-0.62409182655408,0.951157869768549,2.9438373496433,2.27194963021333,-0.566974608106492,-1.51413802160598,0.232150721220629,1.75567423256202,1.80399121285182,1.34607529700305,1.0010895580317,0.794334846863577,0.710833796890039,0.66987142172797,0.598002048566608,0.485079631201352,0.342068406990736,0.190747845742201,0.0368607365040731,-0.135488330172771,-0.340931063580843,-0.581975834733114,-0.841296773674974,-1.07903825206556,-1.24315612138052,-1.28838164503134,-1.19921961746269,-1.00575826540932,-0.777559871670642,-0.591890766115247,-0.491282100580055,-0.458016964929643,-0.425515587200115,-0.320883251417298,-0.110265814784766,0.181676377211143,0.486803663288763,0.729530086202815,0.86171746626094,0.880050979021322,0.820911014260963,0.737913536332097,0.674330122387807,0.644737898395524,0.634806724812205,0.617030568781261,0.571054053549513,0.496237114232487,0.410544963980657,0.338455261954995,0.29619038416085,0.282698333616916,0.280415859831924,0.264369417487825,0.214443125546802,0.124520724144348,0.00407769585555055,-0.127666406791303,-0.250840284450455,-0.352799998782476,-0.432857692232775,-0.503459926316121,-0.587039122519883,-0.707803298648787,-0.879708832957187,-1.09472882938332,-1.31732568189281,-1.49053070722501,-1.55549588103081,-1.47944597992153,-1.27873123738964,-1.02043291366129,-0.794335438073916,-0.665938205320234,-0.638193660127721,-0.649018178708888,-0.609267621559053,-0.457436157948303,-0.196147041563535,0.110144133298517,0.37088173188512,0.515410231499558,0.524258205358937,0.431431388589897,0.300071607113057,0.188230361413723,0.124822554198748,0.106134526555314,0.10925606014666,0.111069814824071,0.102331626970515,0.0912633824166725,0.0962847274463818,0.132722316802113,0.202079472700143,0.290937982981549,0.379470938407302,0.452625153082127,0.506090003413356,0.544178781855519,0.573033648018731,0.595271392073919,0.609690012024639,0.614750269598971,0.611724719181034,0.604351694067075,0.595064415136533,0.58130439552397,0.5564370021589,0.515929146823018,0.463179656456524,0.40798836566653,0.357140128008188,0.304559459963053,0.229714140727036,0.106817857131451,-0.0800039018176811,-0.323669889695873,-0.58957117582256,-0.821751497145215,-0.958884742928273,-0.957044295647399,-0.81276787751931,-0.574567827997191,-0.329864541041549,-0.165053180238824,-0.117043453104466,-0.148664444441029,-0.169861055853854,-0.0942366769658871,0.107001160172727,0.389145086935115,0.662276577942246,0.84019764261968,0.878522539993643,0.784561883633308,0.602165234205822,0.386469607021496,0.182701443813139,0.0157896923413892,-0.109377130511692,-0.200899606978597,-0.270723450865872,-0.327335137738177,-0.372758701128029,-0.404294269072307,-0.418942966798885,-0.416763234142855,-0.400408599070951,-0.371845946795514,-0.330454519654452,-0.275448414207237,-0.210524442711956,-0.145504739788655,-0.0924136610587296,-0.0588395319464705,-0.0437017555063227,-0.0382467153483514,-0.0314306047336791,-0.0164196084834394,0.00576361127832504,0.0278157703295686,0.0415609036925362,0.0427853861524192,0.0317051611409944,0.00884011746512968,-0.0301734493272652,-0.0958385427151349,-0.199474116291102,-0.343630421162725,-0.514066333646551,-0.678360783711432,-0.792523136947082,-0.813710229992922,-0.716176197450077,-0.506648686927563,-0.231313598735214,0.0362975708842171,0.228930889925474,0.324211334457761,0.360345774552793,0.413594081433266,0.550554220727249,0.786952158756235,1.07803453711689,1.34249974871537,1.50247291953745,1.51776130408903,1.40004138084234,1.20318491351271,0.995609874309332,0.828429732798666,0.715906318909693,0.638070523041135,0.561534765151827,0.463379733040936,0.343251088573549,0.219112559551353,0.113218945063529,0.0389688041455864,-0.004379592219574,-0.0288524128464011,-0.0509836705402516,-0.085591630428614,-0.142048563182971,-0.222631835299744,-0.3223286981559,-0.430437008235079,-0.534026524042616,-0.621836852146753,-0.687004598134741,-0.728647764953348,-0.753267696207467,-0.775598521105948,-0.816554771821821,-0.896216619746912,-1.02342912540289,-1.18763274212547,-1.35821436659857,-1.49172481860141,-1.54343680969062,-1.4807832763087,-1.29804143516004,-1.0277088690564,-0.737093016558689,-0.501247316477884,-0.361524681847208,-0.297967180065043,-0.240214211034743,-0.112938974723866,0.116086072028598,0.41771585937293,0.720518738034987,0.949680692384457,1.06147476745162,1.0579390113993,0.978740046070618,0.876998239985764,0.792586873761399,0.737297217166431,0.698381969120411,0.654804302820582,0.593549134160915,0.51613877848063,0.434015685453048,0.358643361678084,0.293805343786202,0.234110270612844,0.168922924250112,0.0882898280351994,-0.0125792328574189,-0.132155437144753,-0.264372956545744,-0.401383173708676,-0.535868493297565,-0.663037762053575,-0.782469175906079,-0.898824487874953,-1.02035334762457,-1.15516133756022,-1.30590679301347,-1.46388446426481,-1.60458845166951,-1.68874742407658,-1.67312738235959,-1.53110642808221,-1.27409733490754,-0.957481465453804,-0.65894326407259,-0.436241773005805,-0.292011909402201,-0.173432047173769,-0.00941481707395909,0.241051524290998,0.562461258988665,0.892343542715892,1.15577036082011,1.30195724283217,1.32472829554199,1.26021771156632,1.1653696556362,1.08845792372028,1.04749017699188,1.0289356886814,1.00587955901453,0.960992917728786,0.898132545488684,0.837362105210453,0.800430685770045,0.797991135842703,0.825853454248546,0.87011010119922,0.915370331901986,0.950206661099498,0.968321183047706,0.967874603934847,0.951315534055072,0.925513749284877,0.900749362847229,0.887827122083826,0.893402741431702,0.91438908096464,0.934302171309275,0.92598545582141,0.862786189634997,0.73445091529601,0.559658392143612,0.387300978208973,0.282441363348425,0.299061643628824,0.449715264702226,0.688830247253346,0.925003733496921,1.06286392609185,1.05432359083969,0.928513316907923,0.776759348528737,0.699699916433161,0.752749672342614,0.914738370884395,1.09742255109071,1.19340339501134,1.11782945236043,0.851919208201247,0.449910835084475,-0.0136696385051364,-0.336365160204304,-0.282945801222755,-0.258161436422381,-1.00049643195631
