-4.4937879547405,-8.49413600992477,-3.27935150178456,1.84013987735732,2.54746907516441,1.55681062278273,0.705015603020525,0.100001123280683,-0.23034699300887,-0.436937839950037,-0.687708866716815,-1.00361001200178,-1.35308727671555,-1.64834953686488,-1.82430875123696,-1.89610085509273,-1.9201428344787,-2.03435731769171,-2.35394421745943,-2.87515685921405,-3.5481308553903,-3.26331863585945,-0.237079680173185,3.22944289511651,1.56016341670197,-4.02013789377102,-5.84013780429167,-2.46729861218307,0.638940919792892,1.11638764922111,0.669067786651754,0.384473721549951,0.310912997247074,0.451170199299165,0.69661588585121,0.919326582837442,1.07283537962051,1.1466375942213,1.16720232834444,1.16302732950887,1.14542809207381,1.12058057642709,1.08529905506642,1.03020818852301,0.94918287348071,0.842475555143597,0.715554251164821,0.571640357384875,0.40453146468311,0.200927457560843,-0.0467034309294435,-0.321931020328352,-0.5712423470198,-0.708471179710526,-0.643409237704541,-0.32879252846429,0.195343130079645,0.790787632588236,1.26450939584097,1.45544050508483,1.32007352974674,0.962923960796372,0.587740299146174,0.397161246536281,0.500748885574153,0.878792710870505,1.4091296286198,1.93148385604224,2.31437483769407,2.49676153643905,2.49100722386154,2.35231403154479,2.13699332931454,1.87634552467818,1.5788396575133,1.25085942029798,0.91349453797365,0.599363456202172,0.333036455013308,0.11386791167098,-0.083070775864005,-0.289782894874457,-0.526831297608504,-0.795228671195717,-1.07866036130168,-1.35035623499342,-1.5818712381104,-1.75384503126177,-1.86658072444816,-1.94482142505171,-2.03165965958471,-2.17183773211194,-2.39114072507037,-2.6810496828658,-2.99422346038549,-3.25064777950297,-3.35249215331771,-3.20824085100252,-2.7668907472491,-2.05490180527712,-1.19516792740158,-0.382321694913728,0.192670949820941,0.436748102215148,0.408349475890819,0.288281422852376,0.281690925713756,0.512522332298037,0.972054621944996,1.54201072434312,2.06692175740097,2.42974322168127,2.59323472980518,2.5936860121985,2.49862381480931,2.35722164819216,2.17419339946879,1.92100687735705,1.57099951912258,1.12863703720538,0.632134876539604,0.133275207342889,-0.325649344137049,-0.722382115501451,-1.05222367473786,-1.32028391147459,-1.53398884912443,-1.69770418397943,-1.81220645078442,-1.88160182668974,-1.92319854414851,-1.96804697169531,-2.0436437134644,-2.14652942578908,-2.22568431277424,-2.19264940701636,-1.95588679253706,-1.46344030064666,-0.737082949719231,0.115732710630866,0.923775296469447,1.51076158246411,1.77290543384696,1.73539498878129,1.54809354107593,1.41395437464281,1.48926046357829,1.81430722345074,2.30983642475608,2.83043467729881,3.23631315962967,3.44504430543783,3.44539100725961,3.27856788781773,3.00567727238834,2.6800538882678,2.3344606493028,1.98318349301391,1.63092502265532,1.27895132911937,0.927722846995475,0.576264127397515,0.222088541824949,-0.128774251947483,-0.461882816955457,-0.76795365724885,-1.05073949910047,-1.35152047424705,-1.71964780418323,-2.17202311475437,-2.70781567962546,-2.91765275257348,-2.00508406098005,-0.5780773772413,-0.88412819149452,-3.19195336768817,-4.85780800033181,-4.51540215857606,-3.45456916252843,-2.70761274055133,-2.09225476897899,-1.42015282521235,-0.781554363133085,-0.290434224782686,-0.0553216005550155,-0.102790186383521,-0.329424812363826,-0.558860252724012,-0.623397512180997,-0.443531255393316,-0.0530427151402838,0.439050148550115,0.905837431864568,1.25188756244894,1.43718585170289,1.47233185543372,1.39664298971637,1.25224231554983,1.06759636404657,0.85860685082568,0.64194652805128,0.444951800854397,0.299720184997246,0.224907720190474,0.21158610383273,0.22582278035424,0.225701980357283,0.180598691358907,0.0823525216289432,-0.054403847450186,-0.200191233165319,-0.32298668632481,-0.40057877417174,-0.428658113494597,-0.422255176437279,-0.410876749588783,-0.42906948039992,-0.504897873203792,-0.649900271840639,-0.853908612719299,-1.08566567304604,-1.29736591494175,-1.43097485476174,-1.4270870006884,-1.239927154174,-0.859791904351413,-0.335275895220545,0.222023806335825,0.666741436143033,0.880712138975481,0.836103696223675,0.619114788248705,0.392574380367972,0.315775415488056,0.468675011659347,0.823390572660021,1.27322357322733,1.69348213056751,1.99513101837732,2.14712692437735,2.16797352405648,2.10124040411757,1.99038617400382,1.86309873813043,1.72872148055294,1.5851605373307,1.42793125175869,1.25620055397505,1.07488192747204,0.893606092837045,0.723388501473931,0.572293572419215,0.442109331045756,0.32763725146432,0.218778488684953,0.104538145382564,-0.0222881772769902,-0.161743416811264,-0.307243368350089,-0.450519326526788,-0.587550562641248,-0.721165710963363,-0.859432105623581,-1.0121071419629,-1.1872695984945,-1.38879939086323,-1.61421226201032,-1.85106619590677,-2.0708550424726,-2.22458511979208,-2.2495381784271,-2.09304293037995,-1.74583369119404,-1.26593868479735,-0.774205205759923,-0.414376556300378,-0.289181047413359,-0.403219286800705,-0.649931209505369,-0.85890600301184,-0.879666880216188,-0.651981330872169,-0.223876280085772,0.284961849112516,0.745548216384187,1.07215206405541,1.24377395388286,1.29316357299863,1.27596812932179,1.23830193009667,1.19875276522023,1.15071563988651,1.07823688012886,0.97271368966379,0.841728525619231,0.707976381598376,0.599574330376076,0.535359703212808,0.512826824737067,0.507271260218174,0.483805585604068,0.414598026585942,0.291229951294517,0.127313501258249,-0.0473688469294223,-0.19780237490858,-0.296979939325397,-0.338229599344359,-0.340996578518913,-0.344305810955628,-0.388602068472461,-0.496187554351544,-0.663079245051331,-0.866355406521318,-1.07866816678309,-1.2771634357112,-1.44096953709102,-1.54273604160807,-1.54550298793059,-1.41238415036006,-1.12749312435186,-0.718617989145283,-0.267466666754152,0.106573647319406,0.292583549239291,0.245909498220433,0.0223817806110951,-0.238649231122805,-0.37859786371469,-0.29571011393335,0.0107977320177373,0.45140389571492,0.899544723715393,1.25145883060815,1.46027152296225,1.53490639449738,1.51522889867733,1.44244348826658,1.34080616685,1.21742527910222,1.07457477981037,0.921018424279615,0.772530696832579,0.643554447940815,0.539424487239899,0.455278413285882,0.380159293218646,0.302196493951041,0.212976371075268,0.110171198302422,-0.00327679843125969,-0.123227232252134,-0.248002055381277,-0.378552576945161,-0.516288833801398,-0.661434051088248,-0.812654027044024,-0.967487993194779,-1.12381514083135,-1.28127911303566,-1.4389741990109,-1.58778171961692,-1.70228778752473,-1.74040857163631,-1.65535033507872,-1.4180617453245,-1.04159816299554,-0.593365218327402,-0.18193908108164,0.0838838745609087,0.148201100110954,0.0434126478565789,-0.118765980887042,-0.201579428608307,-0.111421412245329,0.161891102699286,0.552878416196743,0.962777699602209,1.30587369035971,1.53609861898583,1.64844704482839,1.66390218256657,1.6108398068496,1.5122329576339,1.3815471567835,1.22578990719828,1.05237617216884,0.874847553274717,0.711943955456567,0.57895801209937,0.477950683073459,0.395843726912768,0.312582418117712,0.21253065220324,0.0908094452409325,-0.0474510233652029,-0.1919626116386,-0.334279513835891,-0.476128020855005,-0.634081470724734,-0.832604136121202,-1.08482599166554,-1.37329020979226,-1.64627673627839,-1.83391953954329,-1.87409259561536,-1.73502305370673,-1.42929442831782,-1.01923578040422,-0.609300505540342,-0.31677964718716,-0.222589631943831,-0.325683502324356,-0.534689708229165,-0.710440006869529,-0.735039421075271,-0.562296206233476,-0.221502402856019,0.2161935476423,0.677340490529371,1.10697481034713,1.46762096181773,1.72967272448835,1.86806104896314,1.87052039310125,1.75079299983431,1.55445518550981,1.34927356095084,1.20229418994691,1.1542918780612,1.20376455833197,1.30827489163644,1.40346859776394,1.43158156143487,1.36531088108663,1.21450787586161,1.01300715761769,0.795041018579999,0.576538308232612,0.351787344513464,0.104606638059972,-0.175434020570238,-0.482175300551683,-0.79333179125261,-1.08120817297737,-1.32558262187745,-1.5184641011975,-1.65661908116423,-1.72870575920886,-1.71113477155024,-1.58306887728641,-1.35528564553112,-1.09027396136205,-0.889132435270682,-0.84203654919453,-0.969768598405817,-1.19835222677226,-1.39104037139922,-1.42198756298106,-1.24510596836973,-0.915037934821561,-0.551070029525591,-0.271363078728399,-0.138366874416049,-0.142619699205373,-0.225865842622829,-0.322906535879051,-0.395088792302837,-0.438826651016207,-0.471975079387596,-0.513621793370108,-0.570250589129287,-0.631403859997709,-0.673128494246444,-0.66759012705957,-0.595372033878363,-0.454403338492287,-0.262229747169889,-0.0527215175915932,0.131946710972716,0.254332836129966,0.296960225325623,0.272842984211579,0.22309024958604,0.199593170990345,0.242916782206402,0.364368126821884,0.542963208405569,0.745306313621356,0.940415276402746,1.10557115073239,1.22897612122467,1.27835554083952,1.21688961180951,1.01058230442478,0.611534134252037,0.328636440624987,0.664187984417252,0.984346475395018,0.32830892486029,-0.00565865068881772,1.57203118496938,3.30766675884001,2.76592215572419,0.675011904229122,-0.930212067893154,-1.40185739239234,-1.08651968525957,-0.444937307744903,0.153131830063402,0.56457739688968,0.832533013488723,1.01750361828677,1.10627224721214,1.01699497094431,0.69162295950971,0.182803942036912,-0.35463698609896,-0.745070497398528,-0.87725666374894,-0.736991494504269,-0.383062310482255,0.0922730155222046,0.5864534097703,0.994451953225425,1.2195038344749,1.19763447226743,0.927203326289822,0.48201908388877,-0.00833179520609695,-0.407429622043163,-0.625516718067469,-0.647647690261469,-0.524146693721684,-0.336025127107496,-0.159105906028341,-0.0429047415056647,-0.00575807563185234,-0.0394003055269947,-0.116893911597716,-0.201236073329737,-0.253224488241293,-0.238658671530428,-0.138315141217518,0.0368058018020189,0.231846933845053,0.352111483394247,0.296698394284596,0.0143976699100064,-0.448660929789851,-0.948669628587576,-1.30844992876526,-1.416211083733,-1.29196899112226,-1.07168425917359,-0.923211234118178,-0.957979305865468,-1.19169337718968,-1.5591216992023,-1.95550496546961,-2.27778536796937,-2.45243848316162,-2.44608367523274,-2.2617882601806,-1.93061215594101,-1.50669453075115,-1.06165963288354,-0.665956640635713,-0.357625643607967,-0.120871806152645,0.102571990561204,0.373027563775462,0.712651991274917,1.09338620800139,1.45818849247603,1.75781521692718,1.97704864214064,2.13373807945761,2.25497871108717,2.35138774320799,2.40903378767358,2.40212368526357,2.31387367101642,2.14979441623369,1.93596706864876,1.70589748261857,1.48526813898541,1.28285309740661,1.09127853083596,0.895796976291293,0.684278387979744,0.450815895218967,0.191513509050207,-0.100416668842741,-0.431536817427801,-0.796450490862218,-1.16635969839907,-1.48822730202158,-1.69829796023548,-1.74622935976415,-1.62158816441395,-1.37147992805078,-1.0962091737764,-0.914539519485428,-0.90702193699443,-1.06787393941335,-1.30101706858275,-1.46973451642493,-1.46954282279518,-1.27701380083686,-0.94830798553878,-0.577702213003988,-0.247523336577024,0.00257574229772443,0.176539666159835,0.300606708831782,0.39746615633766,0.47233020060848,0.516698906075961,0.522738733021038,0.495238149865435,0.452903348912256,0.420506219053478,0.418533323604309,0.455258062899484,0.523379682340653,0.602890686794915,0.670228657093693,0.709182981914045,0.716405475678112,0.698236630068166,0.662746370750372,0.614345779959415,0.555050792938485,0.489661018712564,0.428047388933213,0.380823581282945,0.352196467072958,0.337123040480841,0.324938601718705,0.304856323842126,0.268377350101748,0.208683432654541,0.120117843707295,-0.00113788536277153,-0.156630656192298,-0.345479229410787,-0.561664582860196,-0.787411826491416,-0.987086602174988,-1.10968044931843,-1.10492811618728,-0.949736715047828,-0.672239442211048,-0.356176660472537,-0.11458740207402,-0.0393440387977713,-0.151929092477921,-0.386204009033107,-0.617845175486871,-0.725685021050763,-0.648848214110552,-0.407640232605766,-0.0815826634797715,0.236317520999036,0.481103390584363,0.633855947311994,0.713080465413443,0.750510321053885,0.768039627404018,0.76836700471315,0.741758343665206,0.681346821945136,0.594823922330375,0.504063784625165,0.433904243536951,0.398970348458987,0.397002430815053,0.41131223079187,0.419790960488156,0.405141466203802,0.360571083492169,0.28844747697035,0.195054807714674,0.087067150948428,-0.0278292861245723,-0.138752836419314,-0.232579409427154,-0.300237743436507,-0.345129860175664,-0.387043843790667,-0.457166741667908,-0.585015257352546,-0.781954180637638,-1.02841657726941,-1.27275807867742,-1.44540097894143,-1.48317857175376,-1.35323502080025,-1.0681888449564,-0.689108543540883,-0.313170959479046,-0.0425726326893356,0.0594056944350632,0.00272371456733322,-0.131334210854588,-0.233371045916175,-0.223353751334779,-0.0838652154123523,0.148257191765825,0.416585892578322,0.676497318089636,0.905678161458587,1.09657233211347,1.2434007791405,1.33393726821378,1.35063196299183,1.28088661778628,1.13046668401671,0.929543213235339,0.724111102481365,0.556322272222569,0.446289664589996,0.387091938406256,0.354947300307333,0.325568790557759,0.284303788706505,0.224757376486672,0.141392977338652,0.0257823468235049,-0.129324952183672,-0.322880582130994,-0.543582331745471,-0.77563087246275,-1.00582359821577,-1.22352812439675,-1.41241330627813,-1.54190426037087,-1.56909578265345,-1.45665608990549,-1.20124081286559,-0.854875847159761,-0.518285051701828,-0.299097625349603,-0.25441945642357,-0.355245116585515,-0.499858666414619,-0.569015228823529,-0.485950232035182,-0.244544107936301,0.10394606724282,0.487160093313205,0.844562741500731,1.14199519120298,1.36806913776901,1.5208032106008,1.59500531012555,1.58010290595065,1.47162392524421,1.2871810260866,1.07055439305167,0.87588459343513,0.741910837077856,0.675416173244595,0.654268718485426,0.643707263140345,0.611988800931111,0.537830786901989,0.411369353753612,0.232635119618952,0.00889338242580641,-0.249208033540579,-0.531873623120024,-0.832335638218181,-1.14341933418766,-1.4476207801494,-1.7074410752154,-1.86779025511897,-1.87581974002276,-1.70947908833601,-1.39851381483485,-1.02596997792142,-0.706143719337769,-0.541336035269986,-0.571126299807996,-0.742804654551489,-0.930060561769759,-0.996857986859515,-0.86726508993188,-0.556265940219252,-0.147400643632007,0.259653769535819,0.595353931447179,0.838192423314219,1.00446604243694,1.12389935959437,1.2168556321282,1.28361127009821,1.3083465176196,1.27331549292084,1.17489373980967,1.0329305137604,0.887136875714487,0.780345187725339,0.737358825107655,0.752679556872114,0.794901464130094,0.823964750201291,0.809601439454803,0.740682531971685,0.623096921115919,0.471461087963041,0.302123598931244,0.130856023849685,-0.0275845787831244,-0.162848919833672,-0.275415401135981,-0.380052456489927,-0.501178130936387,-0.662275563065301,-0.875744218843857,-1.13611957113476,-1.41566509792382,-1.66357545222085,-1.81391839445766,-1.80524801959786,-1.60728603753003,-1.24393547409629,-0.800238095302184,-0.403050724180755,-0.173888713377739,-0.170182522523033,-0.34806791113916,-0.57598120956908,-0.697909732829216,-0.610059493998248,-0.305493495264724,0.134563118201358,0.58898565741489,0.952484616027635,1.17211370709243,1.25406903971725,1.24444694621229,1.1970373681189,1.14577607569221,1.0957084502623,1.0339738022484,0.949471996907222,0.846066288552992,0.741081699991752,0.652225090454772,0.584164360298717,0.525883336171547,0.461081105080847,0.382493361075648,0.297329538675899,0.219217675045245,0.154361702880779,0.0943216475768999,0.0214309757611928,-0.0778767649193754,-0.202402641303622,-0.335708359419435,-0.455023973390046,-0.542787349102866,-0.594841694642707,-0.623358990407971,-0.65428471449536,-0.718931270944094,-0.841271688839761,-1.02586701587426,-1.25159788874488,-1.47278734628313,-1.6266020731506,-1.64661866339406,-1.48356845466829,-1.13054058833459,-0.642055374369417,-0.131405234527296,0.263609069337234,0.438504797088801,0.375471745606489,0.159071190885589,-0.0602787575129058,-0.137397306464241,0.00170588750781362,0.333857974206063,0.761321740732684,1.16462432894332,1.45508749976745,1.60172618764925,1.62473061845678,1.56725670333597,1.46644242955231,1.33930771046366,1.18654110293798,1.00648955325672,0.80754957543365,0.610213055901757,0.438166771564444,0.305708497802723,0.210351864403933,0.134459274678667,0.053984952097161,-0.0498466277533751,-0.180835247572437,-0.325728726776923,-0.462630269031318,-0.575182351070874,-0.662590494851676,-0.739469814964382,-0.828360009929314,-0.951131818392123,-1.12104655912393,-1.33354370990832,-1.55755539848109,-1.73504875781715,-1.79520385455397,-1.68099505375371,-1.37795425004962,-0.932152662851662,-0.445827086926646,-0.0452630778374993,0.17095074142271,0.1793526562874,0.0464301792562597,-0.10162422481772,-0.139515731758694,-0.000416850317370901,0.300217676287997,0.684120176115666,1.05675390091545,1.35073857460755,1.54261948203205,1.64075829999798,1.66122338198227,1.612089369656,1.49488163371612,1.3164444643898,1.09769406110316,0.871262041196508,0.670307594314475,0.515870582003974,0.408921558621231,0.330586470015854,0.251096446075326,0.143580605647586,-0.00468520029698549,-0.189908450729214,-0.399255084752435,-0.622659500052643,-0.859771036415508,-1.11542554621762,-1.38559411091657,-1.64390532816736,-1.83952282135765,-1.91070756126819,-1.81075633282018,-1.53695809051411,-1.14794560565308,-0.753859702963575,-0.474360414725843,-0.380929929331582,-0.457062722141886,-0.604448088668098,-0.69374425800435,-0.628054252368724,-0.382214397757978,-0.00231114582506842,0.425615339202513,0.817754980195205,1.12536413816163,1.34303371047441,1.4905261347477,1.58470020818076,1.62456463737797,1.59816603097447,1.49995997676892,1.34209621875934,1.15317175805214,0.968590953903357,0.819073240726806,0.721471563869334,0.674125457413817,0.65810728681259,0.644261867027945,0.603334061349446,0.514504346220465,0.368696939272502,0.166563349155917,-0.085956267252973,-0.380701057274526,-0.706223482871199,-1.04274036183589,-1.35685933655928,-1.60127267000064,-1.72266312008678,-1.67765299825243,-1.45369929331626,-1.08851276290707,-0.676481351164015,-0.348253644178033,-0.220043104773724,-0.332931775437278,-0.620004144044405,-0.928519403084321,-1.08959313766933,-0.997294698863524,-0.6547816637396,-0.165846826675864,0.319375437303571,0.672795418766534,0.835589272635622,0.825565848472375,0.710062507580803,0.565617629347216,0.446196322933588,0.370859196875847,0.329247750079618,0.296955357893191,0.252862910917062,0.191856206002098,0.127405157764446,0.0823829238998062,0.0735904201440919,0.10033465884876,0.144978132260614,0.184728081677179,0.205835020147273,0.210350489422948,0.211938845884486,0.225198801891974,0.256437769585952,0.301067414695074,0.347161826557064,0.381504002737349,0.394944236155305,0.385258358791759,0.356823061552818,0.318197633452401,0.279376449391138,0.248725261825745,0.229138734972957,0.215815433030882,0.198802192295966,0.16847583311064,0.117923825983217,0.0397980461131527,-0.0775605719084063,-0.248383955294815,-0.48084069380371,-0.765096034631011,-1.06343562095508,-1.30929898800539,-1.42220006904008,-1.33881084187439,-1.04860329656423,-0.61518008801705,-0.167183587215956,0.146175219061738,0.221733139792738,0.0582186910675061,-0.235513680225884,-0.4917310675505,-0.566961914779735,-0.408284832006142,-0.0676302050359688,0.336809308287851,0.683795659522252,0.900355351072286,0.978190150084494,0.956239620490998,0.888026367704558,0.813877588562327,0.74847053926096,0.683958565524595,0.602764941220353,0.491869720213792,0.352048893919334,0.199462688517862,0.0601445660659019,-0.0401097895623024,-0.086066982332287,-0.0786671802105695,-0.0336146564302636,0.0251875472363151,0.0733781556040442,0.0923046046418576,0.0732811801542095,0.0204136172976161,-0.0489718754340072,-0.109028690053299,-0.136605179829868,-0.124581272506106,-0.0878893755901771,-0.0558793388550707,-0.0548763766911229,-0.0925260015158801,-0.154422846458009,-0.215349926334864,-0.25748579481196,-0.282607439193253,-0.310175345396736,-0.365115083010685,-0.465887725049538,-0.618532291006302,-0.813948957756965,-1.02453641346869,-1.20195075200739,-1.2826607391526,-1.2071708027576,-0.950818743119401,-0.551578056069882,-0.113344687445289,0.227792387914146,0.364205991278251,0.27325380067286,0.0349082651795187,-0.204711107282943,-0.30563610642446,-0.199953477175292,0.085545047637581,0.456909914602062,0.807813659561942,1.06769562814729,1.21922753391495,1.28307076703957,1.28833086234078,1.25164896895686,1.17491684694822,1.05574985968584,0.899411253977187,0.724583025841422,0.560431075130813,0.436164100411992,0.368122344484262,0.352182982785462,0.366883423255642,0.384835099375926,0.383857421669746,0.351504420929469,0.283910600514731,0.183567999234694,0.0586516426849876,-0.0769066298345611,-0.205081544001948,-0.308967059984251,-0.380531435200577,-0.426686746646677,-0.468733132624416,-0.533698506353015,-0.642047687555885,-0.799451254345827,-0.996614530536253,-1.2137525910653,-1.42328092757268,-1.5888507711275,-1.66580382766446,-1.61033809552307,-1.39950145496901,-1.05434938085436,-0.650515099741091,-0.301178329131945,-0.11109986023324,-0.12213530668592,-0.28417270023576,-0.474820904704855,-0.559939142450896,-0.459290807103035,-0.179233259092099,0.202306249695868,0.583023741746098,0.883963053137457,1.07287041472118,1.15901152490739,1.17242760283041,1.1438907442109,1.09474328955018,1.03684236980046,0.976887184942708,0.918781888671584,0.862511403226625,0.803415222989684,0.735683210375721,0.658722213272601,0.580836531672968,0.515970715739372,0.474925667492057,0.457267118995957,0.449901671648342,0.43364133157297,0.393754635101019,0.32775406068613,0.245467114382585,0.161908707743077,0.087817175464346,0.0230014395627329,-0.0437898926695461,-0.127462697832627,-0.236774516789542,-0.371338234480308,-0.527823280244677,-0.706244145317292,-0.907014079021754,-1.12093505578435,-1.32161620476887,-1.46606165117976,-1.50366685026475,-1.39324098721503,-1.12644082103028,-0.748846560759445,-0.362093224249758,-0.093175039463996,-0.0358785972606229,-0.194662730551828,-0.470414453267378,-0.705053069322171,-0.761057816756876,-0.586689646244106,-0.229889177618284,0.198766467242449,0.58365507269104,0.848932984329292,0.974228699560869,0.983485254384444,0.919860200925482,0.822000156935716,0.712373801739975,0.598900121099858,0.48333319010748,0.369216453551083,0.266054416943779,0.188632809975954,0.150968105885817,0.15706771388925,0.194863828215796,0.239579459790573,0.265982312291255,0.26136801384888,0.230509999815556,0.190340744603755,0.158932267359915,0.145657102531359,0.147753315649304,0.154501321838879,0.15534411404429,0.14584612967363,0.128057476057513,0.107149430531451,0.0882769180997378,0.0748622385086249,0.0669171339469766,0.0595744118685717,0.0442014531744333,0.0123988411222542,-0.0409328826206711,-0.119052938846217,-0.227490557414452,-0.374787062496151,-0.56651697593981,-0.795463204381176,-1.0332984232251,-1.2276023935732,-1.30869649052105,-1.21258046954914,-0.918618955857869,-0.482295557871661,-0.033293485642322,0.274196709355805,0.337045391661582,0.159220285974937,-0.147634820668441,-0.41934193727282,-0.516427470597818,-0.381635406387102,-0.053720868837567,0.36087470542366,0.739422307751119,0.992439058573081,1.09031574480813,1.05878038074335,0.951825259367219,0.821167190926568,0.698281413113431,0.59279799459568,0.500312283433057,0.410638084428599,0.313102753178696,0.201207169938142,0.0783057540097489,-0.0394292562744803,-0.128310788022246,-0.169909218410461,-0.162057116911577,-0.119109160149831,-0.0628284328482271,-0.0135342911012511,0.012826588141447,0.00549495435244469,-0.0372691330535327,-0.103603924201785,-0.169550350441649,-0.209036805979193,-0.207008766583808,-0.167426947457979,-0.111282520607634,-0.0657373210540068,-0.0501042078465484,-0.0661002515297748,-0.0982432881912238,-0.125105225940379,-0.134921352717996,-0.135040167732332,-0.148985994346487,-0.204740743575333,-0.322974902979458,-0.509151541441979,-0.746867067827596,-0.991995357528956,-1.17494634862284,-1.21899298032834,-1.07241534274948,-0.740378068734377,-0.298383146113059,0.125272488215823,0.397277321510633,0.439212152486144,0.268788710845909,-0.0043984192741657,-0.230836291709026,-0.292170134269876,-0.150676484435922,0.146380545165004,0.501317341995652,0.815420989999879,1.02866822404005,1.13365865981017,1.16050925585323,1.14551894432449,1.10605040991402,1.03708783494992,0.926529299733988,0.773420457136512,0.595695175367226,0.425181471556802,0.295518901992387,0.229140092345652,0.227468483372739,0.268163343343124,0.312543292029736,0.321852861751575,0.274886930837338,0.177324430405764,0.0570679304687878,-0.0525016687448066,-0.13170241111955,-0.183540524578248,-0.226405468834422,-0.277262036935427,-0.340031874344268,-0.408686720164393,-0.480600568981965,-0.566089236970735,-0.684268537958085,-0.848549184868766,-1.05332890185622,-1.27033241715263,-1.45483396605551,-1.55698355937325,-1.53405675130883,-1.3631415475883,-1.05528865143185,-0.666916880171981,-0.295799757025081,-0.0500793630134539,0.00289464467523254,-0.121542948250966,-0.324754611317028,-0.472008944815975,-0.460311911861424,-0.265518929449602,0.0567898575435692,0.41065204254215,0.710613763746755,0.915243515961707,1.03030100846343,1.08663990601235,1.11002021721537,1.1030747379167,1.05063602567849,0.941661459445717,0.788121182683573,0.625557047435774,0.496595761357379,0.430739937872057,0.432268716082848,0.479735751489629,0.535424882834295,0.561521831783779,0.536755878646577,0.464639963712342,0.368464199721422,0.277347499437206,0.212529531521765,0.179768366208406,0.16862191850999,0.158183972015069,0.128298470343017,0.0712296002305584,-0.00460273203237299,-0.0830339311910786,-0.154871726598567,-0.226977375536843,-0.318483319617222,-0.447997141678615,-0.621660167014744,-0.828022116389842,-1.03881826819529,-1.21274773184936,-1.30161070614656,-1.26061380364434,-1.06532025366924,-0.733688786997031,-0.341166139143562,-0.00884962519796834,0.144808666062031,0.0688463551590509,-0.181731576107187,-0.466013638952374,-0.627669207952824,-0.572255576905138,-0.306084040546985,0.0792207029937465,0.458708552548316,0.730351056931265,0.849928248667673,0.834462995264045,0.738891899443784,0.621576034087025,0.51755377410366,0.431192686935015,0.346981410652516,0.247900935580493,0.129726860968836,0.00489778505143604,-0.1034152752435,-0.172045635597126,-0.188028411989405,-0.154580854118251,-0.090938088642637,-0.0259257486111801,0.0129518316215892,0.0115184043829955,-0.0230289522445267,-0.0638708574624098,-0.0783081303385614,-0.0470241699437095,0.0241707256720249,0.109187938481986,0.179321180630512,0.220139441295356,0.236338068256022,0.24377333425249,0.25623720436562,0.276282177155064,0.296149695899335,0.307457696428629,0.309919455848529,0.309155935087433,0.305141428455194,0.283763032981249,0.22071094560806,0.0940388870534488,-0.104573477498687,-0.364456774482401,-0.654406172354025,-0.923544208929267,-1.10752739566594,-1.14369643371015,-0.994736959783631,-0.674277250675228,-0.261279500533137,0.112613246873888,0.309619020844675,0.251291513433201,-0.0326520339493151,-0.406947472691302,-0.691348213886495,-0.747711171260423,-0.543353054861426,-0.155882234029522,0.277091498713124,0.627779547919577,0.827582277287547,0.876999037329409,0.823031848037205,0.724473290739291,0.623894652356781,0.536103588481561,0.453633854456043,0.36299631746877,0.261134609322098,0.161658498095538,0.0871029971555002,0.0534851935747755,0.0588879505963484,0.0842730363454603,0.105630345386747,0.108780947541577,0.0965374915454827,0.0834815349716619,0.0828120212719807,0.0955761750838931,0.110125395942826,0.111025783751725,0.0894176455434085,0.0470488534941536,-0.00675167120339675,-0.0596391977721613,-0.0985631216063657,-0.11256432927747,-0.0992271510808099,-0.0701766926801105,-0.0473126952334336,-0.0501448929755853,-0.0854593505199286,-0.148971334923192,-0.236256397105715,-0.351340748271127,-0.504003997056062,-0.696628844714547,-0.909540880554248,-1.09536726273187,-1.18855547046096,-1.12915418781023,-0.893187499911572,-0.516734149448799,-0.0985595408929692,0.229192329774841,0.357255038721539,0.256267284142455,-0.00124403398067127,-0.273219005720115,-0.418922870005636,-0.366096106815871,-0.136110471397882,0.181579009027458,0.483500725023365,0.700855482738463,0.818797309141822,0.862951899985322,0.868322096732572,0.852628243841115,0.809078000835302,0.71906601249309,0.573556811296399,0.388602538654009,0.204955010766772,0.0709622634196666,0.018283226266351,0.0457923945376455,0.122493281009206,0.206563414343527,0.266056592053292,0.288080825568727,0.275050242790194,0.236150338212384,0.181614265165234,0.120996380660714,0.0625803867656246,0.0119495998739315,-0.0294349903215937,-0.0634658510723762,-0.0917603197154067,-0.111843377050593,-0.117532189201941,-0.105169951038306,-0.0820271532069751,-0.0702445760023392,-0.101641375684912,-0.204095585194883,-0.385768576253839,-0.62549561678542,-0.874364842322767,-1.06766486977886,-1.14270784890448,-1.05761183424848,-0.806992824788966,-0.431310219827039,-0.0159809293725568,0.326014267424695,0.49228009925046,0.439878409924178,0.216320067333692,-0.0550185667112141,-0.233299717353816,-0.227674435773276,-0.0342593912985176,0.272581829911615,0.582362609128356,0.799606660000597,0.881138591847051,0.84460284292566,0.746065149717338,0.640477838317829,0.549289908222626,0.455058597964905,0.324154971078739,0.138750279012721,-0.0857469309331274,-0.307833198696995,-0.482415565335266,-0.581819196235995,-0.605063012937794,-0.57489213890599,-0.526240646183283,-0.490539564335865,-0.482079025746169,-0.493607799103845,-0.504036210901604,-0.493037363868437,-0.45267970584477,-0.389219519557751,-0.315705116384551,-0.241875754129555,-0.168517909676351,-0.089494302472921,0.00103018395835653,0.102193679984504,0.205603406080862,0.299990378478392,0.377350141048666,0.436170088477281,0.479894908256262,0.512481696914527,0.535170490727561,0.547028636490568,0.547642055306001,0.537942981964738,0.516930224130821,0.476235681104882,0.397786987126494,0.259344595102176,0.0478976868332803,-0.225044156848781,-0.514973981008527,-0.749542415266101,-0.849071232965362,-0.757649895429745,-0.473777743778965,-0.0658068770407158,0.340816043241365,0.607652202700073,0.644364980420868,0.45596491057923,0.145395720454311,-0.13513220347595,-0.257051620193675,-0.170431726966029,0.0856807624511721,0.41415377824483,0.708014902746876,0.891046880663514,0.936878738175022,0.86487352124732,0.719131181305527,0.542143339277528,0.357042467775228,0.167281140905609,-0.0302563049237292,-0.232454264657818,-0.427605414663992,-0.601590326433647,-0.744377696773221,-0.852432035504838,-0.927979957723111,-0.97638068782695,-1.00166263122635,-1.00250762960141,-0.973399265364547,-0.912058699972604,-0.82674610855009,-0.73524864917176,-0.655052361560089,-0.592647215620646,-0.539841822761159,-0.478186046670746,-0.387519431105574,-0.254604229236733,-0.0789679991289405,0.127162793262989,0.346252076875569,0.565480035793527,0.780154159309348,0.98611579143283,1.16835986794457,1.29894859996125,1.34972333801139,1.31111359654285,1.20150669081682,1.05820182959763,0.91433690450769,0.776157269354463,0.616176887288333,0.389725428733106,0.0685281418791084,-0.327177729939142,-0.718996158707995,-0.994474580095883,-1.05854025985772,-0.888744515590631,-0.563676583343034,-0.24284590570899,-0.0996339939777352,-0.236211512722139,-0.625239622716608,-1.11458955518677,-1.49742841910907,-1.60964775112317,-1.39963124265339,-0.936613147004688,-0.364994452369444,0.161595717511665,0.535081118337045,0.720729834403721,0.753558530722553,0.707562167818994,0.65344139775424,0.627369086537023,0.625662346074355,0.622951923709032,0.598474248909524,0.553180431593652,0.507874044424478,0.485754719086781,0.494058966306385,0.519263781579565,0.537947316703334,0.532601769626726,0.499770737978982,0.446568385051621,0.381696834117981,0.309854180599893,0.232896821782254,0.153995971963374,0.0794218754790603,0.0164895116226129,-0.03003640656369,-0.0604828085324895,-0.0804666042459362,-0.0982286550554541,-0.119724755583359,-0.144259179567781,-0.164388201753767,-0.171710303593299,-0.166371857321174,-0.164903113531265,-0.199743781850004,-0.306347285084114,-0.50091909960293,-0.759883794026588,-1.01466148150015,-1.16969177508034,-1.14090591976087,-0.900520877143983,-0.505933684293373,-0.0910154608276482,0.186708744038627,0.222056691006804,0.0185689517257888,-0.311804270033997,-0.607617354489075,-0.738700236964201,-0.660758502564652,-0.418395319196287,-0.106278270523668,0.1811805743371,0.384736404114723,0.489746646585631,0.514698828942084,0.490146193376517,0.440370360983041,0.376236355516198,0.299571728717081,0.212335987849812,0.122995210911904,0.0463425788806525,-0.00252693925277477,-0.0158053327372092,0.00339499572925703,0.0440022528333493,0.0939736675590112,0.145841018553124,0.197261160602506,0.247741916896591,0.295567315379708,0.337474590777725,0.370364100880868,0.392953623972497,0.406205694545456,0.412753805625142,0.416085849793081,0.41967159293089,0.425602099032724,0.432953233723054,0.437437901064876,0.433702020396787,0.418721729092788,0.392123369802399,0.351819400164891,0.289643272137817,0.19265227673411,0.0488891769253264,-0.148152215873809,-0.397605388931823,-0.687705704941565,-0.989515253479332,-1.25400807216195,-1.41988488051028,-1.4327509705507,-1.26851667752119,-0.951174054648887,-0.556835217629175,-0.198364084247677,0.0112820560583078,0.00856789387586939,-0.181907428829574,-0.447695045101507,-0.63633934146392,-0.626875760021085,-0.38443379999343,0.029756744673839,0.492553995391155,0.875581746361738,1.09688917336739,1.14621069793481,1.07554336519074,0.962859630050162,0.869471314618412,0.813605453606352,0.771976786959492,0.703862407695554,0.580235877986725,0.401607970687175,0.198297672228742,0.016127963823653,-0.104592263129939,-0.146593104732756,-0.120932747714019,-0.0586802519180254,0.00427475813987654,0.0410961550858591,0.0422446806495966,0.0164719654515202,-0.0162776798184015,-0.0381342072393358,-0.0460794791631861,-0.0556373251740173,-0.0914545428777998,-0.169974855166819,-0.285774425185,-0.410512047210192,-0.504826330981051,-0.536751190267555,-0.497901920398803,-0.40905386647128,-0.310764066042136,-0.243456961864969,-0.229366448128293,-0.267398421200763,-0.340961795852455,-0.42905175118207,-0.512697096948364,-0.577972221950124,-0.619491375172965,-0.642035705783979,-0.654773345170286,-0.659129208591955,-0.638888432338314,-0.560611144325952,-0.386882479373655,-0.0996645396733328,0.274965704524219,0.656277064616288,0.928590838824877,0.993043633756259,0.827368541134184,0.5123721949696,0.198019569139074,0.0246255569028452,0.0501468818258317,0.230112553810362,0.456985493587468,0.625586293938612,0.680965604455374,0.626849254222272,0.503426579240275,0.357808624575516,0.223990446261601,0.115654890704249,0.0282425129957804,-0.0529604690479354,-0.1411367951231,-0.236843118654134,-0.323225822824886,-0.371480479119968,-0.355447676353858,-0.268025214448464,-0.128718762807878,0.0240634423487052,0.151531401142947,0.231396312781003,0.263222381975027,0.262087469219492,0.247460131409043,0.233969015915759,0.22695970940838,0.22333419051407,0.216999645798947,0.205942790583186,0.195775261021783,0.196205374064365,0.212319090124521,0.237362256205697,0.25358643841689,0.242024757980282,0.194479105772598,0.117759192977608,0.0254582069931519,-0.0765388021800255,-0.197318872109402,-0.351751543657873,-0.539088848733772,-0.724646197426411,-0.839856502141977,-0.806597904254112,-0.578662711547404,-0.180828432155895,0.279736485694686,0.646221068668994,0.781509200006836,0.639734404832704,0.296410986522921,-0.0858382866733357,-0.338625617088178,-0.368355715629471,-0.190872413895256,0.0930700608989057,0.359271528587038,0.520018797219337,0.552536789835487,0.48898017435123,0.38223013663184,0.270412333716541,0.158874753387936,0.0267374599643889,-0.148868932823808,-0.368006148631144,-0.599307383055585,-0.792782209931149,-0.905147792594036,-0.921591861528555,-0.861210399460591,-0.764110611077823,-0.669239216274891,-0.596529932044251,-0.542758071221999,-0.49119792322684,-0.427021675690687,-0.347813898676691,-0.262847358119415,-0.183775051046496,-0.11637181923298,-0.0602994726647704,-0.0138772157568506,0.0239864612418551,0.0565718359375909,0.0916271582728281,0.139110210392484,0.205662260415401,0.289116278878794,0.375999649293966,0.44508557591242,0.477809166068448,0.470106542705892,0.436028145919512,0.398230145240431,0.371400869606823,0.350985187293985,0.314895810644101,0.235730766311293,0.0952317443808272,-0.105736317279472,-0.344071945230129,-0.577586539483751,-0.752605238132205,-0.814788679493385,-0.724024172354947,-0.474001357781354,-0.110634466992992,0.265228441913655,0.525200339419689,0.568819985464049,0.380103679574649,0.0467580895465073,-0.277522259155044,-0.448514325714671,-0.399138733279438,-0.161688716568694,0.160688294511545,0.449747645278238,0.62360801191892,0.661691437053877,0.596978201629865,0.485460984017996,0.372578399736303,0.274012666893292,0.175706031926329,0.0463951778925718,-0.14640087991098,-0.42151137919006,-0.771260036318026,-1.15230052493715,-1.4840795722195,-1.65873191502373,-1.56394086325553,-1.11831940376976,-0.316658001198731,0.724238703811155,1.74210649870013,2.36559386765769,2.24475415732688,1.26414391137104,-0.270061164715424,-1.65806373037477,-2.15224827052569,-1.43733926828695,0.145449022768031,1.8370138356476,2.94703249626506,3.19428017991255,2.71995385213349,1.88474923239477,1.04684893049797,0.434073932179657,0.121234086218169,0.0713811330872503,0.193525082559174,0.388592973935108,0.576041848140879,0.703582943274384,0.745512409813681,0.694416538530581,0.552205258420706,0.329200743723198,0.0528245779033707,-0.225472282080802,-0.435273688088204,-0.509780007111461,-0.423112206119435,-0.21370562647897,0.0134592567569139,0.119400662617589,0.0291462274123302,-0.225976147451273,-0.546540059266217,-0.815505059623664,-1.07528525878109,-1.44198601776567,-1.96635318119628,-2.6999740158977,-1.88797541988964,3.42412482888228,9.2288887022505,5.88933348962703
