0.366968543398622,0.191573039901948,-0.0525346977713241,-0.16647859291476,-0.176574289761561,-0.184199896128864,-0.204485859357383,-0.207824282712329,-0.17613298648042,-0.109266385326835,-0.0225153857918192,0.0647960051097097,0.141888540351738,0.210484007914129,0.281850032796849,0.368283770813381,0.47424578509523,0.59229981434332,0.704181002287692,0.785514227321819,0.812359442877278,0.768346887272761,0.651548753375096,0.479784952170317,0.292664703687743,0.147406664753107,0.104703404974614,0.204434834336684,0.438829941635356,0.738019364028557,0.983848983345136,1.05631473917029,0.893906363848468,0.531335648622766,0.0866820145116379,-0.29644508024816,-0.515563885446389,-0.546804159155183,-0.439416795821306,-0.279995481443076,-0.150107042819609,-0.0970792959668053,-0.127090323193124,-0.217798535125753,-0.33894188117648,-0.468324097145806,-0.596647827451952,-0.721881850177802,-0.838883101174272,-0.932407728645771,-0.979317379487909,-0.958570316012045,-0.862025418048756,-0.700264740955703,-0.501297265135698,-0.301506864281325,-0.130981229368326,-0.000993438337474658,0.097596755485412,0.184155502399863,0.274545978161615,0.373544603568371,0.476983540066715,0.579384374910748,0.679219539077804,0.777390055301112,0.871507654861864,0.951603053000332,0.999954268745706,0.994519672797614,0.915620541900311,0.755619051831569,0.528489017773461,0.273637214316067,0.0497426072916721,-0.0817336915979948,-0.0800067281264523,0.0520436850500507,0.257162007022711,0.436611675643179,0.487554043909641,0.349372190709269,0.0337494698047793,-0.37955575836273,-0.778833060998483,-1.06751871870436,-1.19802460619255,-1.17949937789648,-1.06219583716807,-0.910950491592655,-0.781409903769298,-0.707184374466477,-0.698527422910147,-0.747690303761592,-0.835230538273938,-0.934764380356325,-1.01711419020949,-1.05498679301209,-1.02755220624032,-0.92389521779146,-0.744979306749459,-0.50360965803651,-0.221631276053109,0.0755529062085917,0.365657478404314,0.634661524434034,0.877569719629366,1.09409086681335,1.28172987194063,1.43024126759907,1.52090231827244,1.53250485762864,1.45238765985136,1.28646926967401,1.06237468177509,0.825319829446148,0.630061916894019,0.529334144627333,0.556024342782556,0.700787993386646,0.897002931158568,1.03072770739066,0.984029310286253,0.695698959279651,0.202414445676438,-0.370660853385119,-0.867774232689517,-1.17416117101506,-1.26039862789386,-1.17994480487677,-1.02962009807343,-0.900547822365182,-0.845587692966185,-0.873506625081599,-0.962593939262269,-1.07899270532231,-1.18972010314466,-1.26862922080796,-1.29729736080995,-1.26301196204331,-1.15683210217761,-0.974631715500577,-0.720465485416128,-0.408594211636928,-0.0623233025427922,0.289466354418389,0.617569211727249,0.898505074814002,1.1173857163509,1.26480618443049,1.33224160659726,1.3139843866406,1.21698767430543,1.07052665528595,0.925895532578665,0.842966062979508,0.868100205689602,1.01146825944117,1.23227862016342,1.44073803150102,1.5239387198072,1.39302702011038,1.03127237433772,0.512132268968392,-0.0300633458741649,-0.46206454389683,-0.708825947474871,-0.775065521082225,-0.727088692691581,-0.652854341838133,-0.623646305598531,-0.673343775584463,-0.799297454087496,-0.977742072480253,-1.18074102047813,-1.3839493378509,-1.56383825853183,-1.692629620438,-1.74084248560866,-1.68918371650984,-1.54085595017227,-1.32240199308534,-1.06962568662629,-0.808247720155591,-0.544416324381653,-0.271539357445258,0.0146053389125508,0.305665936513058,0.580738619600953,0.812636957096272,0.975434264402903,1.05186264338662,1.03952476151374,0.953079144956355,0.821460959900822,0.683532073757508,0.584905413577438,0.572384607462776,0.679672116797857,0.905089806475455,1.19370073402354,1.44149427709083,1.53107867843263,1.38792442104809,1.02603408266373,0.550618802258799,0.110316061072671,-0.173863395366342,-0.259679298509743,-0.187625043231022,-0.0439208748064056,0.0874593111088099,0.154925829987759,0.142216062031883,0.0542670060562082,-0.097276359532138,-0.298701842713509,-0.530100362782267,-0.761172424927668,-0.955083492682498,-1.08036500810768,-1.1224078304032,-1.08615220026521,-0.989991876832956,-0.857643167310726,-0.712994084164777,-0.577252777129922,-0.465762131344257,-0.384456105449463,-0.3284619454167,-0.284763270599673,-0.238165616674415,-0.177682282065655,-0.100139422636897,-0.00886456119169924,0.0921853198461386,0.204458904746538,0.334374786006774,0.484235284763488,0.641462146015701,0.777147770366527,0.857735409564172,0.861639156277986,0.788109545870302,0.653325432503253,0.480501951258615,0.29464028514038,0.125327205985454,0.0110380582087397,-0.00504299165103476,0.10731435368461,0.339452787370992,0.62540459248605,0.850302659534187,0.893881568067525,0.692867018387006,0.284646103090067,-0.201370010892677,-0.604670366985305,-0.809674697473105,-0.791636911425645,-0.612458999085014,-0.379317288651168,-0.194479698862538,-0.119777121644879,-0.165645258006993,-0.302358302681706,-0.482887450441981,-0.663956853169024,-0.816213370109032,-0.923744459995138,-0.979870666880837,-0.984806239146391,-0.944757099095752,-0.869282721187669,-0.766937782209808,-0.642805386678566,-0.500005549197234,-0.342729111597438,-0.177091886363531,-0.00969614020848432,0.152905687472214,0.302520731201547,0.428833991468407,0.524117893140206,0.591284429672762,0.647741280465513,0.718982664847705,0.823711948601075,0.959843559955529,1.10158928903281,1.21029868633684,1.25147366275533,1.20710872066881,1.07890458162547,0.885623933430609,0.659034930581773,0.439587244643279,0.27077437702802,0.190843763110876,0.220971772983688,0.351438593787722,0.532247839994648,0.678391302586356,0.696531993696354,0.526628893893571,0.176585192712479,-0.273904281490805,-0.705936923348926,-1.01212937405152,-1.13806572156975,-1.0967191782193,-0.95436743830979,-0.798141365395447,-0.700332357306178,-0.694488428122543,-0.772461817077555,-0.900026146903988,-1.03807023944227,-1.15596581813852,-1.23361269759727,-1.25809830911037,-1.22147764746865,-1.12095950420508,-0.959510665333501,-0.745791639676897,-0.493707052478859,-0.220986966486991,0.0545402826526392,0.320044620879979,0.57015638429271,0.803500968827244,1.01479312711119,1.18862578387252,1.30118459104413,1.33049350965347,1.26863099227953,1.12775333850046,0.937594903299738,0.738612034978293,0.575140898706362,0.488361237147221,0.50602543238783,0.628237613072994,0.81477434950457,0.985056507242057,1.04009800951434,0.90321596299454,0.56035437960222,0.0754719803501,-0.431454036870847,-0.833975465524758,-1.05007371159504,-1.06932677222571,-0.946873621547326,-0.771876370089255,-0.627797532548961,-0.562895002248529,-0.582560265377952,-0.662150062405895,-0.767418356703333,-0.868612318295668,-0.943394957177917,-0.97333491539568,-0.941157911394295,-0.83236699955712,-0.640492695149551,-0.372994517144896,-0.0543269581871082,0.276782369388132,0.576653665579776,0.809298815381909,0.955576003411682,1.01356164427251,0.9920347573033,0.905198471161536,0.774647806869087,0.635442434742806,0.536390060069001,0.527273251036882,0.635122686283953,0.840199834503821,1.06619760937549,1.19758506678667,1.12652171293219,0.810998167936309,0.308474620298216,-0.2427453470624,-0.68767789780654,-0.925637249042288,-0.947611691060114,-0.825158726146472,-0.665044267473238,-0.558563972158441,-0.550801130051788,-0.63869001878612,-0.789440667238545,-0.963234543402628,-1.12743719328091,-1.25836816498439,-1.33578737185787,-1.33987085736081,-1.25599793134726,-1.08262740905745,-0.833589598007512,-0.532969478655851,-0.208723996511014,0.109809324330006,0.392368163339064,0.611050119653513,0.746911063117203,0.795275443428683,0.766487682705409,0.684153805089542,0.583969169364254,0.511432678027163,0.513442551796162,0.622267255724834,0.837262231895093,1.11368282436038,1.36729733467214,1.49937286573083,1.43779376164636,1.17658329121056,0.787974108783008,0.392735039695244,0.103041900667145,-0.0268434249688869,-0.0137946766550325,0.077920047572565,0.175427201752971,0.226802745186594,0.210527714225374,0.128611794809039,-0.00631551641758479,-0.180876417533245,-0.383570335939396,-0.601313369715922,-0.814700487977534,-0.99717541886791,-1.12036603651871,-1.16350293305849,-1.12214573165927,-1.01187931976225,-0.864786918794174,-0.719119943137332,-0.605897455880337,-0.538521168541276,-0.509893533803487,-0.497049308395018,-0.470435229816467,-0.404826654144054,-0.288634596694276,-0.12761724051776,0.0591557222608583,0.248418822937916,0.420827656961131,0.563636824148231,0.66850016408846,0.728410026791016,0.737023978829094,0.690651803335879,0.591531789687904,0.451277696849012,0.293470720730673,0.153505779928509,0.0733467069253601,0.0899345144287801,0.218764953391526,0.438261197223448,0.684133146999449,0.862511133192711,0.883680066374532,0.705290463696639,0.361646769529005,-0.0433726954546775,-0.381578807369124,-0.558702723731141,-0.551185992836547,-0.404298838353134,-0.20080848395019,-0.0227446578368956,0.0757028203396421,0.0772652897106803,-0.00574726409201169,-0.147781609248974,-0.324052794936473,-0.513407825797263,-0.691736492624244,-0.827449098007392,-0.888611196813051,-0.858597677116988,-0.747133161132265,-0.587133044248984,-0.420177970554786,-0.280790322684664,-0.186517499916611,-0.134968481489901,-0.107354374907734,-0.0779709134392521,-0.0263945727960122,0.0536281475346678,0.153389343942972,0.256272003384955,0.347471041357982,0.42039916654226,0.477393898838599,0.526342846263202,0.575905521572368,0.631200122963254,0.691110703615208,0.747383127030465,0.784665264182757,0.78167512066489,0.716062588893898,0.574962313286401,0.368205950466452,0.136148317774799,-0.055846352337198,-0.138592574439721,-0.070085533570602,0.136928068016883,0.406834727836543,0.622859232170132,0.674505303757601,0.509898683189689,0.164567415038284,-0.252045733540914,-0.607174060391056,-0.804513125692676,-0.820447546947741,-0.701023458361322,-0.529198818957257,-0.385637776618484,-0.321475465897347,-0.348443702288305,-0.443907322505869,-0.566925748024406,-0.679213614893198,-0.761003724596674,-0.813341475194947,-0.847254315007736,-0.868980085357239,-0.871656248927007,-0.837930089854032,-0.750461071484881,-0.603350524751766,-0.408170732646131,-0.191373709793973,0.0160154956917531,0.191073972596866,0.326660563893684,0.43000069420496,0.514787032142029,0.59363885123621,0.675461717464527,0.766016513893729,0.867038421412121,0.972662077351773,1.06653975802725,1.12330426687928,1.11537542337357,1.02399343626863,0.85109891083805,0.625704099431063,0.398655449381845,0.22615511961456,0.150383270292302,0.186312381742836,0.316352166583838,0.48946234054504,0.626752139029988,0.642135275240606,0.479101251405252,0.14589592634763,-0.277355379649987,-0.670870428444963,-0.930136648043403,-1.01082905605337,-0.939458551855257,-0.789145078542497,-0.639899294650917,-0.547130411464204,-0.531161974920217,-0.584383197081898,-0.683883023210686,-0.800686480159326,-0.904967423105551,-0.970382184542682,-0.978518652163187,-0.921629136790103,-0.802216903044214,-0.630557079036079,-0.42224105071952,-0.195901601513299,0.0305687515045803,0.245021833117989,0.443201654757289,0.624571931124011,0.784264695932884,0.907967648722575,0.974534134911073,0.965510893670508,0.876554644593201,0.72462184686883,0.546954444747617,0.392381575790722,0.308746606856363,0.328962246600301,0.455528137450721,0.646889704426056,0.817690649016364,0.865165512426887,0.716996390350016,0.374454745447787,-0.0790086870264005,-0.512747722146405,-0.807780233566471,-0.905916583262599,-0.82513450002751,-0.639879906243442,-0.442799926288041,-0.307905001313574,-0.268520619078566,-0.314981166074216,-0.409619723612283,-0.5096555707691,-0.584915379166709,-0.621607896716499,-0.614243419382595,-0.556260145244084,-0.438421550916438,-0.255374625275208,-0.0143872871799723,0.259508470647604,0.524990348396141,0.73365804561905,0.845108201077624,0.841645709383043,0.73573173974994,0.567966037180625,0.397467107161168,0.28634008762175,0.280173639109897,0.390152101035507,0.584395626560072,0.792960487893923,0.926570687866738,0.906503735229686,0.698118588262916,0.332442527662337,-0.100776699589433,-0.490324226814271,-0.751384132852539,-0.856398125270224,-0.834466422161309,-0.746099872155212,-0.652142805330854,-0.593192274190079,-0.585058862587023,-0.625484434982476,-0.703100413958889,-0.802130893244838,-0.902286146383872,-0.978316477799539,-1.00396011942924,-0.95965013228066,-0.838204804157459,-0.644878764400779,-0.394627273779836,-0.111018326583802,0.173149905055652,0.417212979596518,0.579803865875505,0.632810392973024,0.577158461073798,0.450214534040013,0.317728134326427,0.253301141206178,0.314029861012989,0.518587762197819,0.832469557525615,1.16852124585972,1.41082484707894,1.45952122588451,1.27860000458923,0.920194906225689,0.506643906459187,0.175060791061794,0.0144096418218569,0.0313949984803566,0.161465003701662,0.311500038967186,0.405289217105786,0.408705361370727,0.327850819087669,0.188660774245213,0.0148228031982278,-0.181250645192433,-0.391786612983668,-0.60163313944314,-0.783938856329202,-0.908404908053341,-0.956222589774334,-0.930746487598455,-0.856215257036093,-0.765589765543458,-0.686112261416765,-0.631318170180084,-0.601570700438857,-0.588944715711791,-0.581775639065366,-0.567418723281374,-0.534119024696293,-0.4730125768601,-0.380194271984513,-0.257644504013519,-0.112070088146231,0.0472942833975313,0.209774485145017,0.363024529685586,0.493747231857421,0.590663951351093,0.647456619351121,0.662258257324778,0.633827452552817,0.559347270461877,0.439338651696635,0.289056707302696,0.14695615087212,0.0685125354246768,0.103062755308322,0.265211542219349,0.517715989729392,0.776272277147512,0.936568181797285,0.915937830705038,0.693472836281274,0.326233667124304,-0.0725167052648378,-0.383158849984646,-0.528752550256285,-0.498561517551717,-0.3410868931417,-0.137092945782606,0.0328758135877872,0.1142862120867,0.0902672753496624,-0.0218176141536369,-0.184141782537428,-0.355644193307461,-0.506158048993433,-0.622027371809304,-0.701339384128164,-0.743698971132972,-0.744188753683561,-0.696969627690649,-0.603774440283908,-0.47804501634995,-0.341276543120369,-0.21535696411332,-0.1153854641984,-0.0451183001320746,0.00306833471003889,0.0424790605575688,0.0834856015038706,0.128252424227516,0.172760858121106,0.213757217238072,0.254239289176571,0.302790001334295,0.367145676370178,0.446734469394865,0.53012253237184,0.60020827377778,0.64347036130289,0.655023694140406,0.634807881988216,0.5797697946633,0.481970870918746,0.336827053843064,0.15539872783584,-0.0292536137723612,-0.166959846823988,-0.205904913474817,-0.115407423189335,0.0904249925780147,0.341469261734437,0.528477096539202,0.550297954927079,0.368827129155256,0.0353750513438538,-0.332737062989772,-0.611645004385499,-0.727878983548237,-0.680497190268881,-0.524761036936226,-0.337074006145138,-0.183317757359784,-0.101780509593054,-0.101461292432823,-0.170725885783999,-0.288539273715569,-0.431707347290216,-0.576836355559281,-0.70054923180593,-0.781804192285011,-0.806736917925005,-0.772672992366234,-0.687253319369057,-0.562773415060098,-0.411317862998849,-0.245629812526028,-0.0828549528754869,0.0569733537036991,0.160416420763974,0.230337933920113,0.285451901624068,0.348229329515243,0.430723071477348,0.52952612526134,0.631996050162908,0.726025657514498,0.804867485994388,0.865427335683995,0.904018888129929,0.913497840918582,0.883318048850204,0.802971757458343,0.668841838018777,0.492561818544084,0.305891149534344,0.15619741657121,0.0905946078209059,0.133825089717122,0.270246431911325,0.440598865868957,0.559173544194199,0.547555490464077,0.370717702504676,0.0565558325677612,-0.313496690587062,-0.639306658818058,-0.844036483209186,-0.901974618412198,-0.841049711757792,-0.723326316857106,-0.615812562610694,-0.565022596711566,-0.584712562782571,-0.659644008678282,-0.760710991966709,-0.861132276026569,-0.943746853407617,-0.997184018965309,-1.00834355087268,-0.961032267184102,-0.843268024859111,-0.656644552926302,-0.419223739605161,-0.159228931973252,0.0959656481875343,0.32835498802495,0.530897355208949,0.702559250647009,0.840762055383717,0.936699716484599,0.977690136563503,0.955562292935959,0.874379407825246,0.751410965781296,0.612645096728434,0.488788045988799,0.412856223125922,0.413263134727369,0.498509669563925,0.640694072828659,0.772641629590168,0.808449452711145,0.682411565069288,0.386692355478583,-0.0158772093107547,-0.415552109439023,-0.705212242383625,-0.827747243888926,-0.79476926185189,-0.668815825995322,-0.523616960966248,-0.408791713673014,-0.339176132295326,-0.308821413946556,-0.311205086489143,-0.34637038786203,-0.411829694059961,-0.489760992783332,-0.544372208796293,-0.533166928591269,-0.425569566184183,-0.2186442722172,0.0577984735955336,0.348806938434132,0.591338214449353,0.73427025757461,0.754300991623526,0.662505086174053,0.499912618880188,0.324623559765421,0.195871552401238,0.159826823072763,0.237924794733934,0.416191546985768,0.63830959255475,0.812263906879388,0.839266578086897,0.658952678459995,0.286855540868423,-0.182681531415099,-0.615606791175353,-0.89871648216076,-0.986767734461048,-0.911406117065474,-0.752880495853295,-0.596775327901237,-0.500725551727067,-0.483035422857087,-0.530187273648624,-0.613143880731082,-0.702428092851102,-0.775343428455521,-0.814430457446447,-0.802754160088442,-0.723697291007182,-0.56774584781381,-0.34136621031769,-0.0710155032228084,0.200690627867894,0.425193783879921,0.561739591338176,0.591501479557208,0.527500351999407,0.415060751747088,0.320470552692376,0.31070024553603,0.430114630020957,0.679900268007663,1.00634895467957,1.30724732590303,1.46468732713364,1.39853410526103,1.11307482885581,0.702943940705082,0.308296872482413,0.0462009931801467,-0.0389111319298437,0.0193977491187458,0.142146643062247,0.249866822664195,0.294690852272469,0.267162918965411,0.181155654824933,0.0520528963698523,-0.115007620198458,-0.320121247920065,-0.554516051369263,-0.791686233804841,-0.991869434592554,-1.11646842047841,-1.14335086737278,-1.07596068535571,-0.942929138753387,-0.787933310622698,-0.653576428904879,-0.566424531030119,-0.52949357739699,-0.52430944948668,-0.520711477223774,-0.490049130326478,-0.416074631471718,-0.298801906599909,-0.150685532098361,0.0110600352962573,0.171277617409839,0.320467931384036,0.454794729078877,0.572787082369517,0.670524433746557,0.738882170191279,0.765276296003856,0.738656197754955,0.654971654148144,0.522423548665854,0.366483415237372,0.230901450912985,0.16846900102652,0.220428691188579,0.392258406298217,0.638156981412748,0.865853713789353,0.967966408768293,0.872067059791696,0.58306945996654,0.187927732993343,-0.184734439161495,-0.42589228143971,-0.491617323695706,-0.410570419159338,-0.257313942338368,-0.113117418929008,-0.0361707260582018,-0.0504344271700994,-0.149460349215109,-0.307111045184274,-0.489420585943855,-0.664530482491331,-0.808624447453557,-0.907314921025579,-0.954455544008096,-0.951056522837279,-0.904725675132882,-0.82779305809086,-0.732987103314556,-0.628468133445498,-0.515859035119136,-0.393138525604915,-0.260108288219284,-0.122100263903807,0.0102884610778521,0.124871768568304,0.213827208422883,0.279970018564101,0.338986469683313,0.413583333813779,0.521113682689981,0.66207394049785,0.816710476201945,0.951386209797885,1.03074069263725,1.02965046897204,0.940625375923278,0.775870466942345,0.565796896690717,0.354914965902819,0.193891081615141,0.127078942148045,0.17751955202874,0.333488993078912,0.542629435952594,0.721113525041401,0.781098003468632,0.668173121046173,0.389601927550309,0.0149096077082273,-0.354186288700352,-0.627569214369148,-0.759525221744053,-0.756596488018019,-0.664018940921399,-0.54299415701152,-0.448861815716891,-0.415505481394738,-0.449281844076793,-0.534029729500318,-0.644020745278321,-0.756702272561412,-0.857771464213485,-0.938103958233502,-0.98842392763894,-0.99739094128893,-0.954000882124667,-0.851868903539455,-0.693105017897363,-0.490432640272853,-0.266165475717207,-0.0471275821728978,0.143163916692044,0.291559912792351,0.398601609416278,0.477591245773961,0.550065970936638,0.637851111029721,0.752917658400048,0.889296289674234,1.02236297350724,1.11757914016569,1.14529963108998,1.09394791994161,0.973758526186559,0.8091312159348,0.626378690919274,0.447403063258745,0.293379480164412,0.190819581199231,0.16765801755508,0.235720744677938,0.370520144949077,0.506022191504836,0.554782821061046,0.447711368027132,0.172868449932041,-0.211047624484097,-0.59846119048282,-0.886607162634128,-1.02179261654119,-1.01517593033948,-0.922800021942885,-0.808363461405781,-0.714697985115832,-0.657906343907043,-0.638855605526393,-0.655945480850788,-0.707403453786477,-0.784377746396187,-0.865135885491997,-0.918412993403262,-0.914403549360927,-0.835314329406544,-0.679451166881444,-0.459267682715677,-0.196853776226763,0.0813326767396676,0.349955868989503,0.5886881343717,0.782610779383178,0.920313024198077,0.993045512056989,0.996359760117106,0.932484958125497,0.811658973974508,0.653152328709886,0.487033700030159,0.354033308945898,0.298030160551134,0.348909868675963,0.501102316503208,0.699710861112825,0.848184148781925,0.844421817771933,0.633292152589035,0.244388694757238,-0.213794114438661,-0.603711967044618,-0.822399002420602,-0.842014516545004,-0.709712628210025,-0.514938978430253,-0.346129432378721,-0.257428429278704,-0.256561606153981,-0.3140895357726,-0.385307222997244,-0.432227457152004,-0.435929217072266,-0.396045987271451,-0.32053748718092,-0.213894494216393,-0.0732629811377696,0.103873565696605,0.307164160894475,0.507922118748745,0.666910197448959,0.750441789998417,0.744069007111277,0.657210930015705,0.520107401468805,0.377491963388337,0.279948708449381,0.2705503714972,0.366357974720022,0.540736808009549,0.718399455329771,0.794543654519858,0.678099314648129,0.340881291830935,-0.156729632783226,-0.684187651858305,-1.09755729130857,-1.30360386574675,-1.2952287384211,-1.14149944293386,-0.943955966468749,-0.788145101043659,-0.71596786316173,-0.726533602826484,-0.794696884847217,-0.889200093111051,-0.97966385974008,-1.03537853455592,-1.02554250896564,-0.925570578385588,-0.725948107269884,-0.438330786909885,-0.0969056599605371,0.245597218391727,0.529149459432051,0.704801263339019,0.753283048216463,0.693431709441274,0.576202255366009,0.469513857493508,0.441141400509471,0.541584907744486,0.785997824570247,1.13843719834077,1.50827418637392,1.77027778160441,1.81108510804892,1.58575064826205,1.15134727812744,0.649564508866992,0.24143147968089,0.0320058287443614,0.0304080097620313,0.164024817487009,0.32886027169459,0.440361458275876,0.45862678494432,0.384082194224272,0.236639465361836,0.0360164308627868,-0.205019104067439,-0.474384416106576,-0.751099326850155,-1.00283486665992,-1.19351367406681,-1.29620468974572,-1.30410664387874,-1.2337875552072,-1.11808170733756,-0.991626980924802,-0.877748793172385,-0.785027567794122,-0.713444685365677,-0.661442758354838,-0.626185054076706,-0.598374030411171,-0.559332601426599,-0.485481913350548,-0.35842630136503,-0.17453225794742,0.0517588895581005,0.292897692974158,0.518637117228658,0.706058850596167,0.844025176314288,0.930387801880107,0.964749317069641,0.942890898259384,0.858802197108311,0.71521266658549,0.535985068280681,0.369927855213289,0.279893402783492,0.319899410550643,0.50875454992608,0.80969633008384,1.126566783531,1.32751255666729,1.29794459306009,1.00248866582539,0.517235576447366,0.00263373839066475,-0.374064484979088,-0.520020300556028,-0.452094182750356,-0.270755656706753,-0.097553435068887,-0.0174655159155031,-0.054681532850281,-0.18432637538709,-0.362689485712495,-0.554243414445733,-0.742263674833431,-0.922601501611606,-1.09001504287506,-1.22926622116712,-1.31765018471972,-1.33575483013544,-1.27737004056881,-1.15218083140408,-0.981764389820751,-0.792987170092154,-0.611476872422518,-0.455565304246261,-0.331484356608985,-0.232452008549171,-0.143585270562376,-0.0503572246575537,0.054879110195512,0.171843407463975,0.295547127909317,0.420245766062821,0.541854279543697,0.658257772934381,0.767048559592491,0.860570109684766,0.921066044677521,0.92188280937928,0.838527741256409,0.665473877837425,0.428491932787369,0.184371527159694,0.00687380885431716,-0.0373228807699643,0.0835967616708612,0.344819631833131,0.661298638188938,0.910492920876308,0.978557924397928,0.812991758646296,0.454594368406807,0.025606876404286,-0.325849214959541,-0.495567599019943,-0.466966135540738,-0.306258067194753,-0.117898238580257,0.00996618634109135,0.0404729323040092,-0.0103260630774523,-0.0991522302677653,-0.18886037938761,-0.268692719785134,-0.351689922762503,-0.455134814619701,-0.580134821316513,-0.705182471106531,-0.796843748725703,-0.827631440483333,-0.787679123745412,-0.684938915313059,-0.538688356944188,-0.373491428302497,-0.215837180406306,-0.0907501619927711,-0.0157582682696888,0.00618777825714725,-0.0103841468657065,-0.0387688222261926,-0.0518506024455552,-0.0336084127291619,0.0158288702730047,0.0826651387406905,0.14576008957383,0.182496909998102,0.173052753876225,0.104424056861178,-0.0254211924041817,-0.204107936990787,-0.401892910383278,-0.569927863505328,-0.645213407684631,-0.568670610437777,-0.314689281934555,0.0811331722819665,0.515324944195726,0.844618554839796,0.944413576687812,0.771053253324374,0.391558995646166,-0.0404913348699129,-0.351615361581612,-0.421318828467144,-0.225744645103083,0.16271072997413,0.612575290787606,0.987793846114642,1.19636336960138,1.21388017873673,1.07654920971232,0.855132583380183,0.627393375974032,0.459424164152571,0.396546663311899,0.459076235543081,0.640011464113284,0.906367698973753,1.20523375294384,1.47442276209405,1.65698773849182,1.71492848309893,1.63669929426069,1.43705476494886,1.14654692710055,0.794217062631587,0.397706322021731,-0.0402144690014762,-0.519240691483412,-1.0165213189393,-1.4923876414317,-1.8667632495227,-1.97879035937932,-1.62574696387719,-0.571929784241938,1.22673969112277,3.40524457234403,5.32999994585696,4.69371966023094,-2.04147059516954,-11.5436370601478,-12.4532191454805,-2.22084682897248,6.9441102955155,6.88130342948713,2.40426990763878,-0.693942279566189,-1.94618419714435,-2.18363873501668,-1.79444105340113,-1.21818008291423,-0.699717298326624,-0.309545890442975,-0.0966673967352774,-0.0708271375714378,-0.213689158150404,-0.454918389307216,-0.68547719416399,-0.829518607181841,-0.876354421392884,-0.867710543841788,-0.85513635355751,-0.854632232822011,-0.839671131795572,-0.774964633592777,-0.664354548403315,-0.575408109489867,-0.613262824879009,-0.853886304604327,-1.28237560080867,-1.78230177691671,-2.18625124276152,-2.35396721320445,-2.22998680544532,-1.85683054332443,-1.34981188557772,-0.851219089247493,-0.481025894400255,-0.298517848409518,-0.286146216319274,-0.35974496125287,-0.399214113056632,-0.289290609447254,0.0373181465704843,0.56340685335287,1.17641995935189,1.70456697447709,1.99670695666481,2.00336820423004,1.80322260241372,1.55549347257164,1.41302227225489,1.45285181472531,1.65846672592969,1.94920980356932,2.22916755801936,2.42734158945286,2.51399303760394,2.49399831206235,2.38918911365164,2.22321938601325,2.0154531062161,1.78176754062481,1.53671781744746,1.29386648987391,1.06474719877469,0.857871653222199,0.677731934789541,0.522909881417204,0.384000154424667,0.244347010169202,0.0858181881922947,-0.102742848203625,-0.320160160853001,-0.553990694507728,-0.785907276940008,-0.997267583576196,-1.17291077705324,-1.30338978356864,-1.38610625117695,-1.42556403831993,-1.43253475038449,-1.42092378338465,-1.40144496963319,-1.37449033273636,-1.32758672744944,-1.24096608105432,-1.09912239535723,-0.902012087923344,-0.669582535975207,-0.436916345234328,-0.24276489457792,-0.118332346337244,-0.0814432813942393,-0.134312622750936,-0.259295719256739,-0.412480669393647,-0.523899308228855,-0.513640652415185,-0.322889872543035,0.0525080551173831,0.542498011716835,1.01127745871493,1.30020901993664,1.29572651455881,0.991217733845891,0.502768127825416,0.0199973839202565,-0.283814522529163,-0.328800596063771,-0.150291224624806,0.137161908073568,0.402701471090379,0.553023082289431,0.5564102822992,0.434733781845657,0.235447819264993,0.00322268472156972,-0.232887278957289,-0.455394532703107,-0.648957805520077,-0.796532729706503,-0.882269529261798,-0.896309804532391,-0.838316764388378,-0.719615181893545,-0.563460604790119,-0.401094824282417,-0.262018344607935,-0.161572630420077,-0.0935308020530582,-0.033987070043693,0.0448576634578385,0.159482978352874,0.307308454909652,0.469681155108744,0.621788602916921,0.742111319948582,0.816257361300132,0.835538017870091,0.79443368166072,0.691017861744261,0.531610342883254,0.337072741254938,0.145500012415558,0.00699961908125239,-0.0300182974389173,0.0618202589640466,0.269517061137761,0.529497536354896,0.737365997040447,0.782684184243589,0.599175699509269,0.204957263551126,-0.295236897820726,-0.754346724997869,-1.05073232069537,-1.13868696090163,-1.05434723974713,-0.882101489218565,-0.709298107052519,-0.594658153342663,-0.558805557258226,-0.591844352857287,-0.668738290094448,-0.764001848011157,-0.859533686012547,-0.943221557826721,-1.00116763605669,-1.01109014622217,-0.944524792780279,-0.778649610220132,-0.510073626056645,-0.161129848060463,0.225009842468591,0.597422099083989,0.912604030194008,1.14524307997225,1.29019244480453,1.35637342329052,1.3581746817773,1.30962215856756,1.22238444770976,1.10672826933336,0.975808974337608,0.852308487215338,0.77088735888453,0.768019741829822,0.858886220159954,1.01379586416345,1.15256530504939,1.16858464243618,0.977639448196933,0.567746792177183,0.0179107637878253,-0.532098078646124,-0.946531216260876,-1.15366339619265,-1.16678295556169,-1.06153240303232,-0.931805752194013,-0.851393890644517,-0.855834663265004,-0.943921745361522,-1.09028477624913,-1.25923240431504,-1.41321438813127,-1.51545280876898,-1.53221418239219,-1.44018421418758,-1.237128536107,-0.94686436038108,-0.611451308312676,-0.273825583625677,0.0373619536109942,0.310893392290429,0.544830273579636,0.736383732673423,0.87796195148225,0.960163051478264,0.978425976925301,0.941224222473728,0.877298020321878,0.83533831053495,0.869342071676359,1.0118287651386,1.24860861015959,1.51177578253654,1.69928134989601,1.71584945811187,1.51776950483763,1.13830033696701,0.676939924168339,0.255452980888255,-0.0356278635310813,-0.170707724199652,-0.18735389779153,-0.155229088507959,-0.137607279512413,-0.168235507507873,-0.252773589905296,-0.385874986817301,-0.565713981603973,-0.793600460283292,-1.060950034338,-1.33711712437514,-1.57131300950673,-1.71081272885528,-1.7247039811348,-1.61788825274694,-1.42703691900188,-1.20224997193423,-0.985851827018816,-0.798855684842461,-0.639194648354659,-0.489665096166276,-0.330393947933133,-0.149828792812086,0.0505592034809413,0.258981184243493,0.460002756505475,0.639765939014516,0.786652948406257,0.888904488706585,0.933676252626849,0.910908752636619,0.821369915998153,0.684512022852543,0.540694004549375,0.444153915454173,0.446644504089673,0.57552274826261,0.813839078185152,1.09280630326743,1.30630333916531,1.34948496401928,1.16897574900619,0.798016481294139,0.350380506067211,-0.0305789612456076,-0.240096736332687,-0.256443479015091,-0.138027592973573,0.0182793827289162,0.127981572831285,0.150656105021625,0.0909397047803829,-0.0234017179347319,-0.16722599209022,-0.330725580464931,-0.514648740354291,-0.715972560916959,-0.916447552484193,-1.08263793753366,-1.17794992007311,-1.17951859957019,-1.09021009268536,-0.939374126428142,-0.771882716514297,-0.630133808834101,-0.537200109833966,-0.489628710445043,-0.463622378443447,-0.430406462797485,-0.371204875883732,-0.283541731149101,-0.177158128726937,-0.0642138187538681,0.0495071021864087,0.167483717088087,0.297955716330445,0.444770451023226,0.599896072179849,0.743152982622729,0.848857229813191,0.894079610739055,0.864738262734347,0.760299236842613,0.597816536840552,0.412076060154957,0.24869836229667,0.15258415321085,0.156993869633991,0.274667578511999,0.488453913711431,0.742891756425098,0.947444179769506,1.00356789232799,0.851858148596421,0.512155063118631,0.0844164840654642,-0.296575715201011,-0.524842173189582,-0.565675382976094,-0.457122733394624,-0.279902516482836,-0.119238911524369,-0.0366176929221638,-0.0574137414554076,-0.173077365529276,-0.353684685435856,-0.56369507140464,-0.772317731783879,-0.954534252372786,-1.0874159436264,-1.15023455732953,-1.13141422999055,-1.03652972860647,-0.88909849844181,-0.722087350161974,-0.565569335614969,-0.437364730215601,-0.339496267946042,-0.259872567931304,-0.178265646672735,-0.0754287769786483,0.0578289388639429,0.216135036807369,0.382260921537742,0.53568742444062,0.662279892736834,0.759725891950036,0.836335236960703,0.904963028367625,0.975434366122633,1.04794007656063,1.10955570699485,1.13637831339787,1.10210052178699,0.990388362504261,0.806084546893303,0.58039691981987,0.367264838829429,0.230442568949156,0.22220171463169,0.357031034733769,0.590414995679935,0.819164338520635,0.914706031710157,0.780998649967674,0.407369110668657,-0.117267483519781,-0.641560204408163,-1.02107949022431,-1.18118078902282,-1.14078447924638,-0.989606301499615,-0.837264515055718,-0.763977615959106,-0.795789359029986,-0.910199045834867,-1.06174262257928,-1.20910109714466,-1.32871807092365,-1.41186129924027,-1.45356763381163,-1.44463344627756,-1.37197818147444,-1.22525468719939,-1.004206798473,-0.722392201560064,-0.405505385893011,-0.0845915874935007,0.213472071684606,0.473746041234061,0.695209554100613,0.886646738973501,1.05931511489741,1.21920619662883,1.36111497478956,1.46781450611767,1.51682225185411,1.49184899804314,1.3913490610396,1.2294542918251,1.03234752097511,0.835881748752755,0.683899118891791,0.619470615112087,0.664302794365201,0.794740202395209,0.933539557341771,0.972619531065202,0.822813507741561,0.464580342611529,-0.0334666584714403,-0.543646683257441,-0.939642325073638,-1.15173515398295,-1.18708062504606,-1.11034549274357,-1.00262605765612,-0.923802306819947,-0.895922190917187,-0.910298638694918,-0.947307333633297,-0.992706395652646,-1.04033431487195,-1.08323285705651,-1.10397766728326,-1.07416949285714,-0.964589664849804,-0.759019085390777,-0.462972069561665,-0.103698820453127,0.276543651991739,0.630489548641635,0.916523233209374,1.10735756600802,1.1940237708248,1.18444909356082,1.09923857344528,0.968859133056567,0.833446065668494,0.740631311831389,0.734937929775274,0.83820053115306,1.02925513475663,1.23596646624527,1.35111106481014,1.27406853595759,0.962732057368993,0.46539528527191,-0.0924208843791402,-0.56412866202523,-0.850025291387607,-0.93764043610947,-0.893553285766442,-0.816953087869895,-0.786797845869068,-0.832389574029514,-0.936951624193497,-1.063055863647,-1.1799126056133,-1.27631594127951,-1.35463115342364,-1.41421108207643,-1.43915312919733,-1.40049086756581,-1.27074594357671,-1.03984490368528,-0.722600395304013,-0.355494461263284,0.0139381424238592,0.340375637074913,0.59145945066811,0.751786944770199,0.820571705833575,0.808579089123289,0.739227625626828,0.652131140833843,0.601831546368095,0.645433536759243,0.819497843892266,1.11478483750021,1.46304575455983,1.74923769440769,1.85283073410609,1.70468899944707,1.32985170031243,0.846073603054812,0.411580591129181,0.149962942413767,0.0968963410578642,0.197092593072802,0.345215977422014,0.440085987956888,0.422305593578585,0.283665463643719,0.0543456770681289,-0.219294323328879,-0.49514114371474,-0.746579780459044,-0.962049614828111,-1.13679315241754,-1.2650829795254,-1.33927600016328,-1.35508614729748,-1.31698349700604,-1.23856930860131,-1.13803639286516,-1.03212665095282,-0.931298394591432,-0.837436885923537,-0.744889866739263,-0.644209603173938,-0.526425524654941,-0.386220117845669,-0.223685913592666,-0.0441605035318357,0.144182112412085,0.333092351432499,0.514498240556174,0.678162976404244,0.809585102602043,0.890431870470725,0.901990081857559,0.831980768939633,0.684537868363496,0.48953286387129,0.303721419228648,0.197903227015965,0.23164792434066,0.424484664976636,0.735529080574578,1.06325203046846,1.273765330607,1.25495508676505,0.974515737836653,0.506709771250882,0.00430288089327625,-0.372973031568945,-0.531318730724043,-0.475328892185605,-0.28818702756788,-0.0807028667996656,0.0580059903455921,0.0864940163635025,0.0103790483090744,-0.135844332198868,-0.311676609403465,-0.486686543610788,-0.644132114126123,-0.775409026804127,-0.874064134493369,-0.934622229048699,-0.954013109817224,-0.931531735761816,-0.867657460116601,-0.764988596539655,-0.631846857754991,-0.484610975666117,-0.344449034545159,-0.22895771372724,-0.144550061467158,-0.0856855106074621,-0.0412613820598716,-0.00161985111253681,0.0408400736963917,0.0965262373894728,0.180587057412678,0.306511127903742,0.475960754088014,0.673616314089799,0.870397876189807,1.03161838497567,1.12524959159031,1.12828786201161,1.03200974519797,0.846937978724209,0.605508618395959,0.358468430830439,0.163730675868036,0.0714289506466104,0.110353729437222,0.27786176108967,0.532825489578699,0.794110991888366,0.953499581760934,0.911358733824977,0.627140723701706,0.155183366322155,-0.365767198051388,-0.773087599180482,-0.957794368502694,-0.912074754465007,-0.72052381327081,-0.506275716327967,-0.368622944281472,-0.346841931363139,-0.422843615318431,-0.551043460508711,-0.691799427391749,-0.828608853718416,-0.963137374528622,-1.09665372699203,-1.21412249690895,-1.28406075768771,-1.27458761442632,-1.17289814845314,-0.992986653230911,-0.766910158218725,-0.52793875031467,-0.297919331525982,-0.0849880622373659,0.110758461730816,0.290345583150555,0.45334119849429,0.600262751740087,0.73572578337642,0.867694088727301,1.00230835435041,1.13778604000229,1.26155013847337,1.35258617579216,1.38794603460207,1.35038375928839,1.23453322620416,1.05045264599416,0.82392195617562,0.59328741548317,0.403537133276985,0.297710137588202,0.303820738908746,0.417364456757702,0.587503018930459,0.721443487734698,0.715740656183994,0.505268199578199,0.103291586176892,-0.394902152733045,-0.851895788139327,-1.1500490307359,-1.24024801850866,-1.15360943851091,-0.976119667455699,-0.804387311080538,-0.705941750856988,-0.701362081148808,-0.77173918867151,-0.880631440599806,-0.993918124567894,-1.08708120939039,-1.14133725568638,-1.13801947503528,-1.05938408095246,-0.896092103816017,-0.654755650689278,-0.358927600512372,-0.0422127203317707,0.262752215302032,0.533665836509557,0.761399890916349,0.945167934625849,1.083882941635,1.17009715482081,1.19107582618942,1.13689248254663,1.01075602573029,0.835162280897486,0.650476765912741,0.506828852641147,0.450740219724043,0.506604595600965,0.656711269907247,0.831508613907794,0.924317748513728,0.833858299712145,0.51764167346206,0.02462271257036,-0.517832816498227,-0.959724103156572,-1.19572622328382,-1.20688197076848,-1.05801014384127,-0.858176427782302,-0.708420990391508,-0.662913169703002,-0.718910901417993,-0.833783966236577,-0.953810911721145,-1.0372800062352,-1.06274637880012,-1.0243721418141,-0.92288013211002,-0.760246990217424,-0.540840226548197,-0.275988838805889,0.012937127456206,0.295676986582304,0.537992219806809,0.708653628514443,0.787526090030612,0.77375164609999,0.691126387462728,0.5866078354509,0.519842771519887,0.545044182973094,0.68915426340478,0.93274252068721,1.20329576177345,1.39111506707963,1.39049043595296,1.15252971452046,0.72063349494279,0.221213137773264,-0.192710739881299,-0.414877656347549,-0.43289228085534,-0.323178394602624,-0.201142962760841,-0.159249881071389,-0.228643030229707,-0.381205281559934,-0.562211516052713,-0.727393143929432,-0.861543744755408,-0.972541237428942,-1.07115704458316,-1.15338265355602,-1.19685423282662,-1.17200965720472,-1.05934111775996,-0.861118839685197,-0.600459738477436,-0.309852071139366,-0.0180242719625404,0.257424075116827,0.511009091807418,0.747096148553052,0.975358299765296,1.20274923456507,1.42375075928575,1.61541091317626,1.74316757331855,1.77647456758772,1.70592859263459,1.55243635311919,1.3642632092673,1.20419488866949,1.13164892345656,1.1832918234452,1.35463071612274,1.58843142465346,1.78144554068635,1.81838327081009,1.62491944894429,1.2111196324658,0.674666953781296,0.157086440413695,-0.222082238800865,-0.414664078761372,-0.452165359288274,-0.415990662779416,-0.392446968449118,-0.437125221573013,-0.562030393467099,-0.745665505669742,-0.956374006005343,-1.17352624349474,-1.39319602130966,-1.61683242438068,-1.83492484439697,-2.02053181712533,-2.13805092590283,-2.1607793375351,-2.08577656002113,-1.93695524724089,-1.7538947507439,-1.57211826344052,-1.4068977422444,-1.25137118147453,-1.08949235128656,-0.912876293299595,-0.728454924943068,-0.552983934151833,-0.401722617699747,-0.281390748049176,-0.190851036925686,-0.125518884134667,-0.0801299110237797,-0.0478688814296426,-0.0178729465190368,0.0249352244463834,0.0954324527072584,0.200959780169794,0.334542068850219,0.470683915321605,0.565198174928621,0.563240999834897,0.420632123263741,0.134961523696182,-0.231999366514629,-0.563960037515818,-0.738981866007835,-0.696074627521195,-0.47853164456958,-0.220564763276057,-0.0783612827795623,-0.146031343792825,-0.409671547068892,-0.765889736809328,-1.08604586269016,-1.28150497157379,-1.33420083356339,-1.2842966898066,-1.19144495908591,-1.09659677213205,-1.00487873348512,-0.895178012652511,-0.74589253002419,-0.555962953573049,-0.346025063838217,-0.142073186447725,0.0447163390969777,0.225923508975365,0.42446919115664,0.659728347602797,0.936425538643829,1.24330265710207,1.5781435818955,1.94477461498988,2.32540475453858,2.67652146653934,2.88032705031375,2.83091554450567,2.52057055906817,1.98407261655107,2.23324598504706,4.93277840124766,8.0223631141725,6.33853394748073,0.887739235089508,-1.2479106765005,1.38031514906535,3.67552218539487,3.28515746118171,1.87914229630852,0.804196023824991,0.335166446776376,0.427394467264369,0.739331551908163,0.870534936033684,0.596939786939195,-0.0929853968935572,-1.01152188814299,-1.89202470880919,-2.52159253894806,-2.81002919441733,-2.8020048481365,-2.62258477570703,-2.39956626171759,-2.21325812750379,-2.08523831246487,-1.99771296447092,-1.92139369482616,-1.83469096832973,-1.73029248190158,-1.61098157053911,-1.48099200595291,-1.34118828353531,-1.18991452370612,-1.02529616849711,-0.846906754780903,-0.657594414806954,-0.464964801832611,-0.279171142718543,-0.105704537945118,0.0609350680735716,0.235217247312093,0.430333681012778,0.646506848177078,0.863171935211888,1.03681782472835,1.10813097425898,1.02397900063866,0.770452005397922,0.396078249756334,0.0012107594737056,-0.307562535850269,-0.469666869738438,-0.495082625584652,-0.449229099439041,-0.41329192560323,-0.444845003896177,-0.556870634712576,-0.721291991765616,-0.891499479445405,-1.02938066995116,-1.12107512485365,-1.17460382993905,-1.20534848842435,-1.22175499224401,-1.21969549396918,-1.18550614070906,-1.10296874816775,-0.96056126721348,-0.757998676340307,-0.510935900178777,-0.250536057087309,-0.015320536511744,0.161986137292167,0.265246318651491,0.297741902742731,0.277898699417513,0.23255648736694,0.190411473376302,0.175180934597526,0.199016584523262,0.259376461542698,0.3415389067248,0.424897714373016,0.489674181874338,0.523017147379954,0.524845415138876,0.511392480961456,0.512358067358392,0.560297444687763,0.675540198261104,0.85188256616763,1.04926920400714,1.2010986328606,1.23898238556871,1.12417642927701,0.866232160606188,0.519041329304416,0.162684269512838,-0.115036941225214,-0.234233803504221,-0.142557476421164,0.158521081009761,0.592279781007964,1.01156608132347,1.24449229652627,1.17045387702903,0.787445458431806,0.225571823251389,-0.30924506658263,-0.631761755700189,-0.658794732346954,-0.433308386623587,-0.0868669116589973,0.230478730936398,0.413315593293138,0.429559880446712,0.310011996303208,0.113961592425607,-0.105742434631595,-0.32000254604286,-0.518948348712649,-0.695417334972206,-0.832477638238084,-0.905888434523359,-0.899579834387144,-0.821122729589823,-0.703089405765147,-0.586383165566041,-0.496134076300918,-0.428079828818578,-0.355914805780484,-0.25335333114234,-0.113678012867015,0.0465887309715721,0.20011163725426,0.327014164330471,0.426830149322627,0.516812135722885,0.617550600107678,0.73545858753313,0.854684790423942,0.943767853339179,0.970575795455667,0.915069551183018,0.775685858708462,0.571269301710536,0.33969196046004,0.131943165447614,0.00177546097804512,-0.00774721338809539,0.119304087910568,0.354500980557732,0.617188027468074,0.790046340626047,0.762138512349865,0.483389690447432,-0.000402752624825752,-0.558270071915967,-1.03065579711332,-1.30108570685107,-1.34148229442233,-1.20918210264637,-1.00606692359401,-0.829094906032777,-0.737344432727658,-0.744290621919474,-0.830015831947734,-0.961445803016101,-1.10769552819816,-1.2423336420929,-1.33553720405633,-1.34951445828238,-1.24840101240401,-1.01853835645741,-0.682026962632325,-0.290089182535533,0.100436261768695,0.450826570660908,0.749229798042013,1.00182255332582,1.2157048438314,1.38614051099193,1.49562115380475,1.52388634225355,1.46203471187978,1.32327103047146,1.14616220539412,0.989119681534145,0.91551760236943,0.97008176637437,1.15152299143037,1.39355513775456,1.57211482035743,1.55045025696789,1.24884196984287,0.697614846367348,0.0325691559576958,-0.570031864500466,-0.978064834105442,-1.15586504250661,-1.15925344151245,-1.08719274190586,-1.02648115387854,-1.02099598183429,-1.07427134974454,-1.17255591069562,-1.30722331993573,-1.48056262264641,-1.69207139927806,-1.91712800480871,-2.09768046149504,-2.15757459398452,-2.03653635634163,-1.72179510395854,-1.25732171329273,-0.725399610601968,-0.211998532640633,0.223963318873072,0.561216726512402,0.80443886344171,0.963331768876581,1.04044468212246,1.03621477147739,0.964696573506672,0.866124515905014,0.806060031940021,0.85808517304805,1.0728099491996,1.44287971142317,1.88242274235445,2.24180934310553,2.36472421424679,2.16627988723442,1.68728785851482,1.08487655845002,0.558071600039804,0.251586164663089,0.19459907530269,0.304422409040226,0.443689473276779,0.493827010032812,0.405976110419801,0.207412220813262,-0.0324431838159623,-0.250604955380243,-0.423913486380962,-0.571899371375967,-0.733651711149821,-0.936002116115992,-1.17252938745596,-1.40511996206223,-1.58480544578011,-1.67586600633961,-1.66791099036763,-1.57321709982571,-1.41699406581931,-1.22811502837331,-1.03286502189271,-0.851839676165873,-0.699301891116968,-0.582452267038084,-0.49820227712582,-0.429558433543878,-0.347537033413649,-0.22148862876598,-0.0331820953283829,0.213870580738049,0.494954055000104,0.772942525106663,1.00933708210245,1.17178957803964,1.23645737681919,1.18854093194169,1.02598005923149,0.767392609176559,0.45940881404881,0.176404748609776,0.00795630446056862,0.0323556179060557,0.279215691967349,0.695283742999413,1.13914789800423,1.42479476815897,1.40425876878168,1.0460100599706,0.459004391819722,-0.156663007637571,-0.60434319865961,-0.775411976513827,-0.680656215246398,-0.422757676425726,-0.136584809713939,0.0675729611742144,0.134742232379704,0.0651707369042901,-0.106941813038128,-0.339334767305231,-0.597887458162743,-0.858336798160008,-1.09866370256932,-1.29166337920049,-1.40559926765652,-1.41501981082702,-1.31551624218252,-1.13070732454344,-0.903869494152917,-0.678765594602111,-0.482760688872343,-0.321854174987194,-0.18685406265231,-0.0636779510215901,0.058098069808782,0.181357678616404,0.303679937043826,0.424290817417629,0.54968527581721,0.691687011184336,0.858727375641846,1.04756627163991,1.24090954998199,1.41029200125169,1.52159380232,1.54288755367441,1.4549001907072,1.2611316114062,0.99194350856981,0.699231288590721,0.444293259744662,0.284633622005698,0.261716085387989,0.38651424037551,0.622616421888379,0.878028465973224,1.02338129623759,0.941989459960457,0.590455262327944,0.0314992797112082,-0.58667184026247,-1.09584368703781,-1.38145641029826,-1.42552208321301,-1.30076467638431,-1.12568465379915,-1.00807445309933,-1.00464306708625,-1.11120299885584,-1.2813364375317,-1.45882369526943,-1.60457860950718,-1.70497741012765,-1.76207518720363,-1.77736396238909,-1.7415791749759,-1.63558045237812,-1.4397607362411,-1.14655388602459,-0.770325808343445,-0.348653744023504,0.0688193476682521,0.440399627558959,0.749678558210257,1.00868415506231,1.2451379979418,1.48307558023277,1.72873000446861,1.96737770259504,2.16886837118824,2.296269163644,2.3145479451961,2.20029707342347,1.95342613800576,1.6071873966331,1.22983923506591,0.913050661399445,0.7458703971606,0.777820928462979,0.983464781043376,1.25008035164967,1.40760048551156,1.29881007524534,0.858311293524418,0.153833800872488,-0.639731659951269,-1.32167269248984,-1.7545457544601,-1.9116300661441,-1.86477051008349,-1.73180346818418,-1.61900287228321,-1.58535214738562,-1.63675872903328,-1.7434737359797,-1.86617987455012,-1.97507414520465,-2.05320783215538,-2.0875574127631,-2.05931527065008,-1.94256197587017,-1.71225436364989,-1.35641102861887,-0.885962886047274,-0.337089960581459,0.235886013645952,0.774256048910583,1.22891995667655,1.56864394018885,1.78084626571692,1.86804304104725,1.84527006505135,1.74188872190572,1.6058655958528,1.50301325799542,1.50297255331385,1.65085148218513,1.93494241834628,2.26952944508488,2.51121661394557,2.51336528008432,2.19821473491892,1.6056604004063,0.883360980373595,0.218458691657368,-0.249187047586756,-0.481333600391121,-0.537374601221078,-0.525034323626566,-0.542295274712846,-0.642688907464197,-0.833217638309326,-1.09299529142701,-1.39411054408196,-1.71226321965056,-2.02472572770268,-2.30203376104958,-2.50467646902617,-2.59246089897257,-2.54243678319978,-2.36168678757725,-2.08407849179764,-1.75254670090402,-1.3990118994551,-1.03473974964312,-0.65588989039524,-0.258927445432836,0.14514485788693,0.527438226435733,0.850635301652782,1.08380050327514,1.21248209142341,1.24064948765458,1.1881682535241,1.0876069685516,0.980969508172754,0.916186473508347,0.942281544404376,1.09808869496556,1.38925314300744,1.76061734568916,2.08856095009876,2.21781367982481,2.03782934279346,1.55520321702582,0.90850907075282,0.306554391886475,-0.0747854172233462,-0.173070167719101,-0.0521140108193369,0.149725287869007,0.295176691206185,0.303888987543451,0.167810734940477,-0.0687639166892521,-0.345323332090021,-0.616288650726996,-0.862906788615716,-1.08478857626857,-1.28259952184229,-1.44647126191971,-1.55693385023719,-1.59468654847412,-1.55092630246354,-1.43252033574578,-1.26094665724807,-1.06620316818178,-0.877489101360603,-0.71386090703764,-0.57933235739106,-0.465074614765858,-0.35690606746354,-0.243299452741331,-0.119898148003039,0.0111061231580559,0.146165992838598,0.286625453247871,0.440416863101643,0.616659048548029,0.817184752272965,1.03121781530481,1.23507028618731,1.3949562152104,1.4724879492963,1.43456631066872,1.26687871959317,0.985709679781119,0.642236179477874,0.316686364640988,0.101692308304481,0.0748611779919418,0.265032334847703,0.624821451477147,1.02688207267054,1.29683517872627,1.28027290342372,0.917966144631031,0.286709877533656,-0.426352980121877,-1.00828332369786,-1.31593055031553,-1.32877356345931,-1.13703999831915,-0.883462243860229,-0.696545560905349,-0.646737346740102,-0.737639899959552,-0.926166522091966,-1.1547342754899,-1.37703641417011,-1.56655942456455,-1.70999974792342,-1.79730645260542,-1.81848119540978,-1.76710542580974,-1.64353855709425,-1.45371358518582,-1.20634076416416,-0.91264057593533,-0.588175194942078,-0.252892786807316,0.0728647261787772,0.374410824451913,0.646639349144234,0.893373916307359,1.12324122141638,1.34496524546378,1.56396434730354,1.78039038407175,1.98809063989904,2.17409746278175,2.31869998820108,2.39709747349614,2.38414185668114,2.26237546976705,2.03129008475312,1.71457014757812,1.36220600390755,1.04441774816271,0.834418218996668,0.779626580674859,0.868844383286253,1.01434600680694,1.07166174952882,0.902561786043576,0.452599857879075,-0.207536657490879,-0.910410029230564,-1.47526255269401,-1.79323023042619,-1.86410214899569,-1.77188194677943,-1.62513392099926,-1.50232844267094,-1.42983788596827,-1.39512801427417,-1.37751258773331,-1.37345935718277,-1.40125966154364,-1.48362033141596,-1.62022461870259,-1.76973657755841,-1.85599927985313,-1.79695705495443,-1.53893813544778,-1.07688698376199,-0.453896229416493,0.251930680712797,0.941784750223056,1.50822067899736,1.85030956468594,1.89719909984578,1.63744279811181,1.14269644438843,0.570753476567554,0.135896214425117,0.043135144168857,0.398046315597799,1.12663736536114,1.95831357591654,2.51334409813185,2.48069971806028,1.79917043675574,0.721233925470311,-0.307805005285024,-0.896542337523051,-0.916617900424589,-0.534202922513111,-0.0655841979265096,0.216166223178731,0.195638827675961,-0.0848419314475451,-0.49354664358846,-0.884050901374596,-1.1433477173142,-1.21215205612002,-1.08914158354639,-0.826974274147759,-0.518867094524667,-0.272275422980353,-0.172806262771888,-0.249970070125142,-0.461421032223335,-0.706330098150798,-0.866152060684811,-0.860872120345779,-0.68986451389926,-0.432514331467219,-0.204650625841692,-0.0528614560821468,0.104482187442668,0.300319678868451
