-1.42607265884308,2.24703082714248,2.74943650778135,0.528615901782027,-1.38712958312307,-1.57779338193354,-0.692612803579392,0.147251250944702,0.447997348320886,0.371181246402619,0.18890604437247,0.0165587784992373,-0.0971813285914747,-0.123188390271056,-0.108077567956188,-0.139132384118437,-0.139519203758769,0.177622728891166,0.878505136000729,1.42477160936954,1.15815489967536,0.221383275940165,-0.481481657344083,-0.426717287891393,-0.127452314151662,-0.356355540883553,-1.08381257811302,-1.61442664314967,-1.59268440902523,-1.40241240858626,-1.52726575608294,-1.89491894232851,-2.0499054427219,-1.76173542717347,-1.23533927624177,-0.798169622927826,-0.571064303402302,-0.451408024830344,-0.28278406445852,0.00839860066556231,0.376409486057018,0.70750738290105,0.921505119646497,1.0413882634549,1.1666177903533,1.37714558156215,1.65554761593038,1.89093378044182,1.95538296796115,1.80022754143765,1.52347535386198,1.33801773486249,1.3887628783825,1.56411445944733,1.57483286738977,1.2782111378122,0.848524416164693,0.566067216108419,0.513687497235314,0.55696444765963,0.554262625183024,0.481671727041853,0.382525695408053,0.299848931075892,0.265894711023817,0.286839991596988,0.330987357078625,0.37559268883544,0.443482432166617,0.544366105253709,0.620974745983049,0.62134954570155,0.578413697865872,0.534502466431241,0.440648359779591,0.24408333894931,0.0349696105882483,-0.0368727752769754,0.00704302588284351,-0.0347239331941461,-0.282066961729784,-0.613270288251785,-0.821330723921637,-0.853426833892483,-0.831321879069529,-0.870696334059562,-0.951652186654373,-0.985005635807175,-0.943587105226217,-0.870269539466778,-0.80561791011634,-0.775094499887841,-0.788576467320654,-0.779958574719854,-0.627987174344382,-0.328919007182128,-0.0709694717850844,-0.0357154544355158,-0.181381127380155,-0.316156611952972,-0.340868862173627,-0.311894167890373,-0.282345322213289,-0.222378268720484,-0.149322779409349,-0.192592353403361,-0.40354672034763,-0.612396496831173,-0.63340839382353,-0.527468348861568,-0.490691656644441,-0.554185004471993,-0.577433174510372,-0.495500583681225,-0.393531290998759,-0.343554863525451,-0.316977988865866,-0.273265718417416,-0.219180088028004,-0.153104266352208,-0.0365441916613417,0.141040750362651,0.318865978536319,0.416690210981475,0.400591288146087,0.283162205332796,0.104105090033366,-0.0511499210715984,-0.060125887044497,0.123046941939658,0.355615106660481,0.393416551013328,0.147870947790274,-0.185373007055923,-0.314779051907743,-0.152654835033624,0.1275086075637,0.30955081827666,0.321447389420264,0.208874595992239,0.0555489143031659,-0.0163166803048025,0.101989573441237,0.354134303757254,0.518242932423354,0.461819106503353,0.318387820447107,0.309896000520423,0.459123709014382,0.577465724190629,0.498285090230508,0.251113149752847,0.032405463002673,0.0296140157444783,0.225838464632828,0.378064049335538,0.263238657851741,-0.0546760301325546,-0.287149994375288,-0.255283873029995,-0.0725261088150182,0.0302827279779564,-0.0243935635907416,-0.125311668149963,-0.152242514094443,-0.1051876424124,-0.0521884429256543,-0.0155320630498022,0.0479050693157559,0.16974990872793,0.309883763831889,0.393233608457919,0.400454477658653,0.393132837271351,0.429517345376513,0.476373148422348,0.44258193181894,0.305916093208789,0.169613944921961,0.152786316745865,0.230630739729747,0.234548750922648,0.0425965270100821,-0.257758255873759,-0.441071514938431,-0.382866158607576,-0.195735646106182,-0.107925228082214,-0.228259394852896,-0.452910442394875,-0.577855066930052,-0.476545431163472,-0.203724470754814,0.0393780384266471,0.0821558277229517,-0.0374733134421125,-0.112497289306835,0.00104686506949837,0.251430901286686,0.486948022983902,0.586024083487796,0.48396519365543,0.199418132399097,-0.103630049593852,-0.184060599186233,0.0394541626989776,0.34628922812195,0.39209810231681,0.0534763615517133,-0.433409489364803,-0.69823441926548,-0.59387694620321,-0.313803782552639,-0.158796465805034,-0.225934489542063,-0.362777024543424,-0.400003543285823,-0.344952351548551,-0.302156869833265,-0.278003874282125,-0.176960326407605,0.0211660004488736,0.200100657163596,0.259588680767094,0.244298585802728,0.271501338817451,0.373917329639179,0.453861329041605,0.390722154669746,0.19168055063933,0.0246979534813127,0.0574548958305919,0.244233840392231,0.330123000065352,0.124399694976385,-0.266523191914815,-0.54889408373576,-0.565886640201156,-0.430623538093475,-0.332768022686432,-0.320370579849062,-0.336663194340269,-0.370407242998066,-0.437292349602346,-0.460432623562629,-0.32551442179602,-0.0688418327981823,0.120119841512803,0.12864890383761,0.057986923563295,0.0820457565060767,0.246846486324958,0.459359432936759,0.597715153358723,0.57706249896504,0.391374969863805,0.163884232953313,0.0854295496541441,0.226251148109098,0.443537089553399,0.511181643735299,0.318256727826976,-0.0461724326576937,-0.355844376576891,-0.417658680090817,-0.245684803005826,-0.0610783951731682,-0.070842990404139,-0.258476745890288,-0.434137236049897,-0.458019807621374,-0.349415667692892,-0.203804304080329,-0.0898665054722974,-0.0338111882979772,-0.0279822994325839,-0.0207446913431739,0.0577647323224822,0.224572956906237,0.414173969105409,0.528526983952968,0.502704936462462,0.346013644753993,0.162269274122265,0.097832545714219,0.199965684087331,0.340367211583629,0.339247215705367,0.155217411571099,-0.0884225088838794,-0.241934681842881,-0.256737233201167,-0.202872319368701,-0.192678259457033,-0.26966579599152,-0.36189311394519,-0.363155561628915,-0.25209702194051,-0.112420740170944,-0.0520242924956185,-0.10441710290718,-0.182751181791154,-0.152355248247187,0.0191855838791832,0.232549053532731,0.395868980964561,0.49348094821164,0.491585774871665,0.324346478620771,0.0461816114581757,-0.130296601746663,-0.0475615618391917,0.2026621709572,0.35703287982561,0.227619714097823,-0.137990809009655,-0.498577756350241,-0.610192720626433,-0.432070182760879,-0.178893782653506,-0.128901184164199,-0.33904664379873,-0.577276727936015,-0.574151547757494,-0.318276431973149,-0.0598616614848412,-0.0272204186360399,-0.180738005448225,-0.270638419309986,-0.119907434947228,0.190110732972531,0.427723536685658,0.45960566939545,0.338799085209207,0.171632525966722,0.000287988958467382,-0.138305699007191,-0.137971231067227,0.0639450264213639,0.310535896073528,0.293340308979573,-0.116991175395526,-0.654834208769754,-0.874748797390542,-0.608996069085557,-0.151385767680398,0.0542065529305658,-0.137312066876359,-0.48432179224309,-0.662317377184547,-0.553592514485961,-0.258313624946098,0.044547788056936,0.20423842008888,0.176455795655608,0.0748679734732061,0.0952665375975283,0.320160373148217,0.604623690589079,0.696005836774032,0.485471809170525,0.137912179191004,-0.0415101694523316,0.10659743368387,0.424389151092188,0.562103658815226,0.309502607960673,-0.184468956275301,-0.547086210339994,-0.546050926932535,-0.288371315433047,-0.0584899276464734,-0.0299177137372317,-0.16958897883952,-0.342372118812012,-0.426225657976627,-0.365134064018993,-0.18945322999925,0.012032668030634,0.165199988334965,0.251803594183627,0.294444638833493,0.337129428995142,0.42596361859039,0.565834910694708,0.695150506118991,0.723256550228031,0.60425001076925,0.403143939666962,0.294853902799622,0.416811382017427,0.663299695281323,0.71883637280354,0.406461080507855,-0.058695609187358,-0.281658839072748,-0.125835111540326,0.158389655249256,0.238487240798958,0.053878035762684,-0.167994423869441,-0.202028142108768,-0.0551930814872126,0.105262374836326,0.170600711978554,0.174722870329568,0.202641331772439,0.283229598992697,0.379859758875653,0.458555104975176,0.53224468790059,0.614656917771386,0.66502200820915,0.638762592368447,0.56327240686377,0.4893389925018,0.411838308997022,0.327921016903564,0.305178561220604,0.366530045542828,0.368989152790739,0.150937087107468,-0.216435216224624,-0.462305407568582,-0.426209707892346,-0.24535744694735,-0.190212567656891,-0.357049067014988,-0.576022498354914,-0.63014421568111,-0.511565278443666,-0.395518866561716,-0.387433364123429,-0.408013116142841,-0.360256121948213,-0.295139308571364,-0.318782984376671,-0.413705923094333,-0.469758804017916,-0.440322842339759,-0.375304675934923,-0.314477597349966,-0.193738333728428,0.0203217376076072,0.232065497473538,0.389988889371007,0.175532008655635,-0.812740559878631,-1.35543239537346,0.218723862501019,2.06851150877983,1.09350729878467,-1.29280061505769,-1.70952074590686,-0.512882525194849,0.0504345955613924,-0.287691929017706,-0.635587616311463,-0.712513529402486,-0.728400086126725,-0.819548475490844,-0.896752019860201,-0.831444787790967,-0.659726304457651,-0.506660011654793,-0.417581812840234,-0.34839361370905,-0.262361381633884,-0.169863408210125,-0.0813375427432627,0.0226334010293125,0.156956986169009,0.286646261287961,0.325082660005331,0.205244935550719,-0.00949650132705178,-0.120834050612947,0.0110409631209292,0.2657909011169,0.34885366744713,0.118444575854315,-0.246001261235581,-0.450423032990998,-0.400354488909491,-0.248270361868251,-0.174134913654519,-0.203168341189869,-0.239809514229928,-0.208848517416235,-0.12684195510259,-0.0587779267108477,-0.0257518317580351,0.0347899092056108,0.192113646647913,0.41324179058118,0.591470514747222,0.686863594588955,0.753189084721104,0.810629755171826,0.793902220399861,0.666616167916279,0.509557243375897,0.454139687577774,0.552364635459932,0.699254960017032,0.678319798332103,0.363013538451538,-0.0888664718538355,-0.335201127543867,-0.212404847551836,0.065639308268757,0.136277283716512,-0.119033247426792,-0.460562775375505,-0.55603765626076,-0.321220449757654,0.0155199528929479,0.166062029570985,0.0703445317208836,-0.0767126839911485,-0.0576028957612107,0.156866187553461,0.434497174422769,0.644372722061637,0.728729904243022,0.672978372912876,0.508144854027144,0.332291828556806,0.252534324201106,0.298077654348015,0.404769440825158,0.452004729528576,0.327986430988263,0.0363435470137208,-0.267069746084631,-0.423529173136754,-0.439454588245942,-0.424023788209673,-0.408798330079883,-0.354723725770478,-0.30384002229952,-0.362365407691976,-0.508366377153066,-0.55605978137201,-0.378191316421103,-0.0801399602287609,0.114261655085929,0.109638136563741,0.0189132247677061,0.0159844310378167,0.161676785777223,0.379101773585892,0.544528686183293,0.571220655017461,0.449875931953326,0.257267187185446,0.115440494547714,0.115210181555617,0.256455512910178,0.422239737235021,0.419649342273027,0.141727859602002,-0.271362398069771,-0.520595038030881,-0.449794543924801,-0.198755668240192,-0.0322645142068914,-0.0848596942920551,-0.291744536144707,-0.491319574260748,-0.546764054554259,-0.41390466949346,-0.156544454232705,0.0847575891721485,0.168604699188027,0.0594345986177773,-0.107885848100459,-0.120066656009745,0.0985742334645578,0.394918483348401,0.560805327575239,0.547811292480623,0.452867954172954,0.357884669478815,0.273698975076294,0.209376000216729,0.209540919906135,0.301649225294201,0.422893377366202,0.417095963209474,0.1577879560819,-0.277768040733253,-0.603814115777429,-0.582093876861968,-0.286987483721875,-0.054974686527673,-0.146473548889136,-0.479618471624652,-0.716272036281759,-0.614352661779648,-0.279250654251317,-0.031044387127691,-0.0344891052832031,-0.145157358514072,-0.145111595522855,-0.0144515765754564,0.112946413469313,0.166364344316199,0.193657741074253,0.248171733730833,0.325317659520055,0.391491693597827,0.396566052681709,0.284392504833987,0.081023751410627,-0.0464005574458772,0.0585273074247682,0.299648290264307,0.36288846513391,0.0742257342902201,-0.370754132088917,-0.625663546390734,-0.566327948689047,-0.361686813428485,-0.245862031017313,-0.311986066015735,-0.484383503213879,-0.608507699020657,-0.578273405336758,-0.42285593216228,-0.271171369455385,-0.221217945851202,-0.249519182971488,-0.243957540007236,-0.119020150202242,0.0912247345418489,0.253545323636535,0.265829714036002,0.171601310030062,0.127605611348253,0.23594403614983,0.40642381249084,0.426801234403397,0.214498443929955,-0.0387535907184847,-0.0593974934739558,0.173437057990561,0.377254556797702,0.278570874887415,-0.09521189526703,-0.469426253875098,-0.60029256366461,-0.454394214253351,-0.180143047676359,0.0151022960080237,-0.0120300004354147,-0.24396692567455,-0.493491858595201,-0.541667716716371,-0.334409219119945,-0.0342138962253871,0.151845143386699,0.178146947750791,0.157819152458872,0.187725645422091,0.256294709601562,0.321361644995953,0.383544043267959,0.441276056346076,0.442133452915134,0.343673124987167,0.199450656213149,0.125547968899996,0.164519425504361,0.214967244117571,0.129831595588397,-0.121391945093155,-0.410644727289983,-0.56513942779789,-0.514823434045504,-0.351111783362607,-0.248910429409747,-0.303357622804048,-0.44257748857844,-0.518037026687439,-0.449720835142054,-0.26392667278385,-0.0512084514105066,0.0784206172297847,0.0725261516822539,0.0183497556055235,0.080222773947032,0.298352714081839,0.513573692334663,0.556659995034246,0.441327027400819,0.290396461977892,0.165460649793184,0.0844645480943141,0.0997375563260988,0.201840383791367,0.232621463389334,0.0537233819009305,-0.256206641433912,-0.493779068789185,-0.563242294878837,-0.526533919388091,-0.481740495993616,-0.474261087657112,-0.495029743299469,-0.504738937816765,-0.463440399142684,-0.364734283670305,-0.244451621888309,-0.143067682464484,-0.0559129435492102,0.0608276014924041,0.22217018684096,0.384221920814133,0.50794486632488,0.603112845093064,0.662451428110735,0.619147181747973,0.45072696877975,0.272297781453926,0.234072160743373,0.347940540642763,0.474383688705735,0.459780364408463,0.260969242989062,-0.0289410146348851,-0.255642060079159,-0.320599409729316,-0.232297092765384,-0.0711024120059735,0.0546370531061723,0.0553138637232658,-0.0614037122662667,-0.167739616250027,-0.123870159162182,0.0836879543294818,0.320978305603642,0.433016427212591,0.411333542204017,0.413551931120215,0.568347748791056,0.799032685429159,0.923744939260139,0.893323818653177,0.814165094956229,0.754488378582224,0.676530636547929,0.589230005538179,0.603498590911154,0.731903174384537,0.765967144065666,0.51423200742271,0.0952177188279279,-0.172792889279248,-0.154115838698092,-0.023347704036778,-0.0075562225261707,-0.130065021878725,-0.255447435628274,-0.298076558431588,-0.294779485859525,-0.288048134435323,-0.23752771398006,-0.101976212799183,0.054002465000633,0.11705978236794,0.0724826384008403,0.0272972215473406,0.0816044360094848,0.226997377164077,0.38051597774691,0.467691762209893,0.448946785728419,0.309821410606574,0.0749557261477038,-0.166631659727226,-0.286769260044115,-0.223297410325765,-0.084943396634744,-0.0988610059426112,-0.392523805052337,-0.8454617145663,-1.18772096114344,-1.22677324707176,-0.995348728239513,-0.729511037795508,-0.673946354203813,-0.845872576108608,-1.00991298010139,-0.946418959793345,-0.716594006124087,-0.531737196714245,-0.40889412834299,-0.2323123519786,-0.0801138005273323,-0.1158659148648,-0.271210714621652,-0.351213451685531,-0.306208353103913,-0.237730814497927,-0.248121865509426,-0.331401286919652,-0.411996503363597,-0.473590033560827,-0.546371006944007,-0.59768390231052,-0.56672544526959,-0.464454235600576,-0.337781272818857,-0.194563493930611,-0.0539829140397967,-0.00592433558926417,-0.108761153480992,-0.264932836745243,-0.308082832757178,-0.198243161371874,-0.0440396183928462,0.0369271152607213,-0.00710811423022619,-0.174826263186787,-0.389418523504661,-0.503094502761703,-0.435071021910054,-0.283023813855148,-0.207056686908523,-0.226980838809016,-0.221852450342254,-0.118915783655128,0.00741096402535603,0.055047165855728,0.0522106469999922,0.133626703859421,0.362496009345591,0.628726465067371,0.76524254453309,0.752168572563387,0.751290687556843,0.904329341617083,1.1306292892482,1.19116910899221,0.971838074557879,0.656994805807841,0.567932540470404,0.810165592564702,1.1072990371157,1.04924029605058,0.540453393367561,-0.0555047016552954,-0.282728986861373,-0.062389645191862,0.269551035766104,0.345268172260406,0.103452854860831,-0.220003059428151,-0.34988476494733,-0.214099009876473,0.0315574991094042,0.206274552417966,0.289083690173413,0.351617973598999,0.388794174958382,0.360739544556591,0.360902969113003,0.548071584467281,0.871039007498308,1.02916487847114,0.809329891861284,0.369354940984595,0.0826904772444594,0.139440817151701,0.380356665490861,0.502334010814353,0.348660970151629,-0.00428829450665662,-0.366351725193947,-0.588328585444778,-0.631406496094514,-0.550729062416393,-0.447597023232282,-0.418034922183336,-0.494142846500634,-0.60772621634892,-0.641060467607865,-0.550551999303936,-0.419257631066442,-0.342650536140692,-0.291128963391829,-0.164648410745463,0.031543976423251,0.179252666299209,0.231809253476671,0.27338780365367,0.336454585058415,0.297065992908059,0.0731137178058244,-0.16227686756804,-0.134771037175346,0.152888924655907,0.346257077062694,0.135928450979857,-0.356721874275603,-0.711347582092323,-0.694895393751842,-0.485688592610673,-0.389564683699851,-0.469023081797141,-0.559407716538558,-0.557858345928846,-0.523718493972804,-0.503660423541057,-0.435319966587266,-0.286046606453009,-0.150161480636015,-0.109943407219229,-0.0865620496814899,0.049679505922359,0.252307409007018,0.329066021181555,0.24061458670251,0.203483894901951,0.364225905700656,0.521704266956626,0.387497713032984,0.0402359835880693,-0.123477353877479,0.0939501156205452,0.422370959514367,0.452292699284782,0.10831555726983,-0.301839057620436,-0.445829034561068,-0.283857026074218,-0.0474955795314847,0.02765332156181,-0.0808354230237528,-0.215082494567388,-0.236694525286447,-0.143744769419321,-0.00871599199547093,0.119013413187198,0.214970202082272,0.245470500683535,0.204219104852964,0.169553264787045,0.25136858731133,0.457237193948544,0.659704638025599,0.722589746784166,0.626738741360431,0.456829333754886,0.306120637223424,0.222961265839858,0.219077224238861,0.281275727784464,0.353596803287175,0.322479283752607,0.0820218307993238,-0.319739841655728,-0.638690802588611,-0.653102165398161,-0.432181795508783,-0.278191566454286,-0.37668379510447,-0.603372190046559,-0.712538686292468,-0.622521978863896,-0.450962536195278,-0.331606161443107,-0.282846268314717,-0.245177618369774,-0.172240845809081,-0.062253597028528,0.0509494655697434,0.117941001226558,0.131139333021106,0.171497335383478,0.326364664841426,0.528667004584874,0.558059307724733,0.286730800484879,-0.102776775095419,-0.246678328158921,5.81165421103037e-05,0.348933401925814,0.35409509255967,-0.0938430188496836,-0.630394079295554,-0.807304904856922,-0.558267434854605,-0.219047536816605,-0.12303763243593,-0.268765062810479,-0.409963451749997,-0.377206308783867,-0.2161110723583,-0.0539507153068771,0.0566210411223308,0.140459825656999,0.209343938099389,0.220227983271689,0.146884756156144,0.06949381634898,0.119407063721226,0.310853530955063,0.493924077360166,0.510856800385846,0.34772262921223,0.107591109430828,-0.0961449334758031,-0.170309507122543,-0.0482018483476246,0.218328269717057,0.400025432588952,0.262509159582052,-0.154000970607859,-0.515097164453285,-0.518345450748788,-0.206491565841486,0.0869836628849912,0.0922281726759573,-0.129608040536124,-0.281845541084503,-0.167461824783708,0.116122079283378,0.32163375747282,0.331195289767529,0.245884503655598,0.235623335357377,0.361553991684212,0.544686188181652,0.665792491448275,0.677287540620303,0.626982241357927,0.57758464442105,0.511156144930058,0.352402319025443,0.114092087267563,-0.0401148538186458,0.0321952226280023,0.231421482657878,0.264572112276021,-0.0448768012063791,-0.539106880467053,-0.863081407739419,-0.821247315514779,-0.568038542189207,-0.425790517335035,-0.544004567589375,-0.776004509854731,-0.872570217795747,-0.747096432949072,-0.530236036484428,-0.389567022056377,-0.353670114923941,-0.337467392025772,-0.268026992519959,-0.119229458412926,0.108947610425261,0.357429599660697,0.503608021796622,0.470832625851914,0.322442599421114,0.215802321337185,0.289502175575545,0.570815294795468,0.900720052571886,0.962505457338622,0.545060960118177,-0.138123392993635,-0.526308514142887,-0.273381897401902,0.303816352665734,0.50457512819686,0.00571556286727376,-0.790842708253108,-1.22582401112577,-1.06047915807958,-0.598900464201635,-0.269869539347197,-0.242010615044997,-0.397580517491289,-0.522298134428707,-0.469250145387884,-0.215648269809908,0.158311567837718,0.524264378521035,0.755607345725196,0.768494604328218,0.583275110710994,0.366140060203183,0.332887046042875,0.533574279028646,0.757561510281353,0.718574347885701,0.342242869136335,-0.149956793442948,-0.435497166497595,-0.374620808430878,-0.135852462613427,-0.0365724104650388,-0.220044824731523,-0.50473945528842,-0.59855710305765,-0.42718214167224,-0.174245566907482,-0.0231277428989317,0.0345647508308554,0.114227859526657,0.256723707791559,0.396784357315906,0.479529661624533,0.546873845561952,0.676814595748421,0.843381480936831,0.888059046139892,0.689847579106986,0.353692877743581,0.153174037364782,0.238622964815098,0.440351343050215,0.429792725288365,0.0800465022668075,-0.389611895324565,-0.643054782744266,-0.559550174869477,-0.331622403654502,-0.262940030514234,-0.464497389345027,-0.739098670196595,-0.790633392189029,-0.548742400341516,-0.242571048325891,-0.141088062592438,-0.263209783252177,-0.379670908862132,-0.285809366862195,-0.02204942729996,0.202234369165732,0.26029507781568,0.221708488684957,0.228509635135103,0.326026404521146,0.431171305798483,0.423188733445651,0.262952845990536,0.0638987881129024,0.0177734793917918,0.174787487598264,0.327236001522314,0.217862118581617,-0.148356908824721,-0.508450524609452,-0.642844195846003,-0.557697659923822,-0.390271146163907,-0.279133502606192,-0.328049501360487,-0.533520583383351,-0.706678764849657,-0.620341214201833,-0.300083855862743,-0.0334655233874089,-0.0159807679481215,-0.120252932839469,-0.106410078785091,0.0626635483661813,0.232409170958273,0.302993010274863,0.343717891351672,0.460209195986281,0.609063597224109,0.602283835807799,0.339784321364802,0.00813308364008923,-0.0582350880030463,0.235255289450885,0.569668738987272,0.520608555861231,0.0292415713819204,-0.520380372027645,-0.715836879578388,-0.523352166936913,-0.240124947172223,-0.143551585684352,-0.276031998845349,-0.495258811773454,-0.619161590073283,-0.549660408149473,-0.342065552795892,-0.147167643302915,-0.0476924362323115,0.010855823938901,0.0964742851402829,0.171893698754933,0.177458115835354,0.178367138885593,0.311776908793273,0.577404963674462,0.780882983109404,0.736591957817011,0.471662638699968,0.192200186245101,0.0974122616408918,0.239624870754616,0.479758095477727,0.553563167862687,0.2909109648856,-0.173634311600603,-0.493153419242076,-0.46336059241354,-0.23137406381454,-0.118604780461422,-0.265858055896869,-0.483438825863682,-0.480418342289219,-0.236190654090023,-0.0422375899119044,-0.105412960861653,-0.24292889635448,-0.136793874502432,0.201587779405239,0.443424189750851,0.40600515541156,0.284725456855857,0.355077059155378,0.606530382860368,0.781925954971558,0.691011716331976,0.387853692963788,0.0953489056020866,0.0349381148258405,0.261000197867845,0.555036958790039,0.548792911845007,0.0972567099732464,-0.497291538871261,-0.767897374739072,-0.581523056023493,-0.249688305983182,-0.156601702695991,-0.374423720082152,-0.651521376150055,-0.708810671532748,-0.510791011824544,-0.258496087822566,-0.151885261363068,-0.19006469087088,-0.197708662444666,-0.0248725757507103,0.280815947659787,0.511767846930835,0.531166850255203,0.425315978665486,0.362067513974432,0.350690616562493,0.269915572658583,0.120750986138403,0.0789839601336122,0.219055611346262,0.326549438170982,0.13184078765589,-0.324536070266041,-0.700310657762135,-0.727667417649982,-0.479338970633641,-0.249004769827234,-0.249931262180418,-0.446249380597917,-0.620550406052829,-0.59094155739963,-0.379314089621503,-0.158047536104887,-0.0474721118761876,-0.0140683768691459,0.0419743942511358,0.159884241653038,0.300851480857153,0.426811256369559,0.541868490073375,0.619552981628364,0.550525832182017,0.278746572200408,-0.0212641369238746,-0.0552510882239718,0.230060852060434,0.504756635878757,0.387792456914307,-0.117191208908985,-0.616847669461662,-0.751233398776295,-0.534430770942962,-0.265298078276464,-0.194077481095535,-0.327256103295733,-0.49615447731603,-0.542642693340245,-0.440027839395876,-0.270630268064566,-0.116800856506567,0.00125160115584705,0.0954903610675187,0.176634807156985,0.265911868976157,0.390625867247788,0.546323712459699,0.687597697275012,0.749064331933632,0.661437788180653,0.413001303574233,0.153483687524527,0.133876647434751,0.401709541416273,0.631841634801324,0.451780162786003,-0.0855879006223985,-0.536541337251461,-0.579182877165046,-0.331235426207358,-0.1372109059171,-0.187368101873746,-0.40405427001165,-0.591168177376789,-0.603139934848939,-0.422895011734036,-0.166900945398439,-0.00334825742212891,-0.00380004933371636,-0.0770425598811074,-0.0777496865471655,0.0455699410819587,0.237388611812311,0.423663691104645,0.561449622860515,0.624107151771718,0.586725154487638,0.435578548280514,0.202014395425672,0.00969259400103946,0.0307250778352878,0.281995791188091,0.491250709813648,0.334606497890843,-0.15767613486125,-0.597452368250594,-0.69140292825002,-0.525948734122855,-0.349901917894599,-0.282091731341327,-0.325283117947852,-0.458162865808536,-0.575061985014137,-0.500535641711855,-0.215966333832206,0.0410320015279778,0.0478378955955635,-0.105434556079385,-0.132041006427733,0.0737004107902915,0.32324181476,0.408682834933516,0.350908157868946,0.315946088652846,0.386988956659962,0.498199501460104,0.537421923297988,0.447520576192593,0.265511508616827,0.120608879772731,0.15108052504964,0.340851258986727,0.45935374450423,0.263194142685672,-0.21318720966478,-0.634794924717741,-0.688173247820422,-0.410833442864371,-0.150547250391036,-0.183717166116421,-0.432027113315312,-0.6034555829216,-0.544830845058567,-0.357771914833296,-0.202479724469576,-0.110014136358319,-0.0231815665971025,0.0653196054347532,0.104863600262756,0.0974620557366323,0.124227740856281,0.236356194801822,0.389411304721434,0.509709367452828,0.560316011586758,0.528338161144685,0.419752635519322,0.284805981349058,0.195824370523167,0.192446694403758,0.265949606432947,0.357634921349717,0.35059445047029,0.135399065259351,-0.251617761415391,-0.593711551417382,-0.668590983789016,-0.472388373715581,-0.236574626722986,-0.198039159974057,-0.368581624505272,-0.557884131283049,-0.595594010421318,-0.472662517564348,-0.285131453215835,-0.126941543926824,-0.0474843340662319,-0.0314173824927258,0.00572355100503669,0.138488610064669,0.328878293480111,0.461557472157545,0.491928662820236,0.482251818752848,0.468076991736876,0.392740000507034,0.246910174072153,0.174442901220145,0.299766024203499,0.480579361260136,0.399417586972295,-0.0322379534866583,-0.493940533003538,-0.608990515129294,-0.396867397470508,-0.223116940009024,-0.336878629264583,-0.608572996589063,-0.733436098445263,-0.583696233738592,-0.321316540544756,-0.200178681821423,-0.282885992221289,-0.378265507031246,-0.275502519164561,0.00955130530825195,0.282384490690433,0.421259853929243,0.478466382910355,0.534237094902025,0.571463421322153,0.543958301271373,0.468837708293812,0.389931125257088,0.329812584361779,0.317991995940739,0.366400156184257,0.371572215444865,0.164999595939081,-0.248291663950084,-0.603307365055801,-0.649070456624821,-0.450089335779551,-0.298219854959291,-0.366432483421012,-0.562941817415332,-0.694985872310904,-0.656824802774686,-0.461050058079364,-0.195326915757292,0.0186926349616816,0.0960183428517841,0.0702176945546457,0.0832235548195138,0.254287244413736,0.549908924504544,0.800972664755906,0.860466055015985,0.727281334772723,0.507857494973874,0.311126909853065,0.223003467779689,0.299987421515538,0.475193030553349,0.520619551105038,0.247009429248314,-0.245059659894337,-0.617795618728106,-0.633905480662248,-0.39046662608363,-0.200176697032645,-0.271484348860203,-0.521550732716562,-0.69582559767828,-0.645211488126279,-0.446547171809531,-0.258573367172069,-0.139378071106848,-0.0487531360484338,0.0431465392409305,0.130225314307132,0.221638071340488,0.348743968836734,0.519215247851771,0.686664968392496,0.757131988869337,0.641387038564619,0.359760021694589,0.100781983656548,0.0875862813798355,0.317970186177251,0.495993340364538,0.326156812207083,-0.140908441094485,-0.560252406602977,-0.681337318980399,-0.567843469527131,-0.431110487093273,-0.39071305691503,-0.446490208411479,-0.554163778055049,-0.634297201504338,-0.585801686644568,-0.388799483694948,-0.159709557418156,-0.0350223077010107,-0.0263444448120388,-0.0315320789973892,0.0507263953215941,0.246331916697149,0.495299555340224,0.685120706392053,0.7245267158313,0.605437341306326,0.404458885821265,0.245933625269735,0.239519607259855,0.388871838105818,0.547102239485221,0.510877410684055,0.202463598981,-0.235466034953611,-0.545678922514628,-0.577472023538339,-0.4109301639829,-0.270445712289773,-0.323228225944696,-0.542305381150514,-0.733896233355922,-0.708369021697083,-0.464090946440201,-0.201290356858738,-0.11705642972986,-0.193420445719343,-0.232449897857103,-0.0909719533041369,0.176758102676831,0.40855341307734,0.506161390819544,0.504313625585255,0.507988275733943,0.570641376540238,0.623054142597635,0.552087962850108,0.372271843524443,0.259166805844274,0.342105937238876,0.500406952609834,0.461653808954241,0.115352838543686,-0.345846259557975,-0.623809852308305,-0.596457988215586,-0.388236036951397,-0.23137032455255,-0.282255296611947,-0.50605574725752,-0.703493431450683,-0.689085921087021,-0.463564208977554,-0.194504428894028,-0.0403120712838403,-0.0205735820629456,-0.040477003787344,0.000727877898072471,0.131725122217176,0.304768383656525,0.444035718322039,0.51012831018061,0.532319841353761,0.563894876982848,0.596995954150691,0.551481677883907,0.380134103779472,0.176925502280182,0.130604556944368,0.303913373548441,0.466045641140511,0.277632125377606,-0.275873376782131,-0.772301576388057,-0.815894278422592,-0.502898409951823,-0.266033500909826,-0.342806494286611,-0.572115005198139,-0.675771598887494,-0.570969678865182,-0.378965077662311,-0.239923005529151,-0.176838197375139,-0.107662809907173,0.0329004109160624,0.194609135444632,0.269007056780682,0.244976004758521,0.245382631790328,0.378149199209236,0.592215187452327,0.717772414662819,0.634287991909505,0.380086386637454,0.119984280677515,0.032503795597591,0.187070383445016,0.452237118809128,0.535240236610288,0.226241443710554,-0.34159966349986,-0.758785708712822,-0.741485230382056,-0.419106167914362,-0.165869346125372,-0.201721313795304,-0.422682360398897,-0.579647258099579,-0.546120027566638,-0.391337877522976,-0.236309456044649,-0.121264804615774,-0.0275695806309962,0.0326656374645852,0.0206477925581187,0.045657408739379,0.308613280000887,0.594868049238538,0.428681533286597,0.0745477785171863,0.277481019706896,0.853662826542189,0.92967798173592,0.406097752726117,-0.029989024560241,0.0404413578855485,0.414878376467881,0.613932516992171,0.337892929418751,-0.240956078777991,-0.652465646363175,-0.640979966387589,-0.403602567718284,-0.291887667922606,-0.411239829906343,-0.600954239774709,-0.691851133393567,-0.646718133489825,-0.501622621642758,-0.304806158046994,-0.123680588827552,-0.016932097503214,0.0344728195219932,0.112466194044746,0.261692889107746,0.452827908377192,0.635720332852897,0.760969032538737,0.765801593864114,0.623868084196811,0.410742655490057,0.257857547824273,0.237482076316104,0.311811483550852,0.363388186583644,0.263337042261884,-0.034318428710847,-0.42817791486294,-0.724774852691665,-0.787487376488022,-0.638378070319079,-0.428829352241259,-0.324372117791678,-0.39386033857355,-0.562278000375837,-0.660025215905773,-0.561526350852857,-0.305006526553808,-0.0477382009067976,0.109470108414214,0.202652589382491,0.297592790009774,0.384065349138248,0.425981235467842,0.451289233443822,0.516280511978408,0.59067673887005,0.546326351850856,0.320702482119063,0.0724217573217061,0.0577130551925861,0.285816123767814,0.41380090782593,0.127363827819774,-0.436394250636721,-0.8112076622983,-0.737784271493764,-0.427061031553927,-0.264488222990181,-0.388742709327814,-0.625797102139771,-0.738185890889883,-0.648807616855039,-0.456057429402328,-0.297380243908157,-0.209695033287846,-0.119805894457027,0.027861670717651,0.176967825747284,0.244373760435624,0.267421105237061,0.38209072377398,0.642488719554161,0.92079500735582,1.00626584646248,0.789232925721965,0.384598848435774,0.103141490846688,0.211558225154101,0.619790566464281,0.871675618969125,0.584626978267182,-0.112181006568653,-0.693911240863051,-0.795171601596759,-0.539522941967064,-0.302625454698174,-0.283293629382875,-0.40085462086817,-0.513579558762366,-0.567940747910811,-0.537827255942149,-0.38308850521956,-0.1360757128818,0.0755198651866476,0.165132634774337,0.190950315145602,0.267218535306257,0.402558382909271,0.492282233007614,0.490316559851666,0.512637157830482,0.664682708574209,0.801738428590485,0.644061964903829,0.198723420102714,-0.117068063403964,0.0521529736984773,0.504415204747476,0.664214464244275,0.255992472840087,-0.390542171606967,-0.756756086449648,-0.689898961889275,-0.437891244735941,-0.27370750257134,-0.264080862476103,-0.352807204480494,-0.475214004048712,-0.548611395569352,-0.487968254356796,-0.307116044937647,-0.125914910433158,-0.0195090999373124,0.0641005563919365,0.17765908027553,0.26068008347153,0.255833008400676,0.264186160918507,0.432759306179634,0.690802461428229,0.748204328659889,0.440404637548043,-0.00220058712139375,-0.147796562961358,0.153368182290288,0.556618235145112,0.562105463696579,0.0435804652368397,-0.625558688428725,-0.964732461095375,-0.834572604851513,-0.494429481235634,-0.300795070416701,-0.395645781213592,-0.644190910684107,-0.8089398803489,-0.762329649828956,-0.556184426887344,-0.327051891474708,-0.161431261556152,-0.0495379030427438,0.0592747880598676,0.182764273563601,0.287192750339864,0.336896532792901,0.364719694994669,0.462743809533806,0.651678419734602,0.782520239501122,0.663629750641198,0.314376686131404,0.0107709712073288,0.0131984323450535,0.274135661142868,0.46252794802125,0.287191607365969,-0.208484251240346,-0.673925117708666,-0.781567141135548,-0.538635322764251,-0.261210493944084,-0.235926809706662,-0.44064043567503,-0.62285132412664,-0.601277993646626,-0.419307342205816,-0.225803868051848,-0.0919134885792773,0.0240430977961783,0.168570886000861,0.305095891980119,0.376988234379792,0.431732458089231,0.579992470996605,0.799799031004969,0.889757761005478,0.697864933164924,0.340368263237212,0.119460790889949,0.222058467016077,0.511528620494281,0.623945879355384,0.312400435604692,-0.272665562303884,-0.691865535243967,-0.664503066099902,-0.372709012529735,-0.237660129336911,-0.419367626113449,-0.664447899790864,-0.675414900212268,-0.483261210202132,-0.33781905767207,-0.326057112026128,-0.280523642416969,-0.0689883948561921,0.202995224013225,0.362809271352022,0.414191326989859,0.491428846342591,0.64440453387571,0.776811858111295,0.762083731360604,0.559946063740875,0.268274440778068,0.0951552571295102,0.190990793769038,0.442201481074514,0.510814054981341,0.172905797630285,-0.409970970563663,-0.824344136386555,-0.803179742769862,-0.458657977208221,-0.143289911704907,-0.127549240468335,-0.400211425226,-0.712181010902062,-0.780993133519355,-0.510675447026102,-0.0757999759213946,0.230885114373197,0.274394332688524,0.184042752271802,0.178584442291383,0.344155791102961,0.60391125482861,0.818609614492289,0.856136975208005,0.648177208252143,0.291948368244108,0.0551119542256255,0.139074314069299,0.408181165426405,0.472238938350298,0.111704039258381,-0.456249642821453,-0.812693250737115,-0.778132637758875,-0.543540316944165,-0.419453836740144,-0.543677042856616,-0.797736472341638,-0.927259826190249,-0.770396161482305,-0.429249154519927,-0.178940361816433,-0.160173756021078,-0.220611963428756,-0.116191061671889,0.189700460693819,0.501042770467952,0.642557227596028,0.660450494724213,0.707083637592033,0.757831863302195,0.601325208251666,0.207444206010716,-0.0674079821448369,0.115867061928914,0.538286703833241,0.580673623291862,-0.0122424113558505,-0.771988580210601,-1.05175990452205,-0.759832858574991,-0.376504364232843,-0.340129158627547,-0.610793418885377,-0.843828930473325,-0.819978450717455,-0.599393645587364,-0.349268441063919,-0.169153622396153,-0.0732601879946241,-0.0201962891776626,0.0689591068828142,0.250643602899562,0.495217582954067,0.716459084984935,0.856152568689541,0.904505218301569,0.850325539079074,0.670383782968286,0.412357032539198,0.256234696871245,0.377959033364653,0.677737658722567,0.750893280612307,0.304224927747282,-0.422787069757157,-0.846939243834369,-0.692275536852225,-0.278388899482688,-0.0939565031241224,-0.258051183131667,-0.520096330983794,-0.643541847052287,-0.603641497974297,-0.459118854496619,-0.23005936160584,0.0337732580525804,0.204722022525967,0.214955002502511,0.172056506184701,0.23091639523663,0.402626783404951,0.590536445565939,0.751669716301276,0.882728311026228,0.885864446479895,0.640252603838002,0.259012045987804,0.0952369579448673,0.341268878244869,0.712769988002674,0.711975862574765,0.20461910288216,-0.417859649947946,-0.691211002524428,-0.560025391364949,-0.335334449677998,-0.291734992820918,-0.435644086086245,-0.616190404688145,-0.710263561090149,-0.668539120801563,-0.500338224922924,-0.289731326015181,-0.158257774077245,-0.139729703415341,-0.132618740684977,-0.0270870741986603,0.163876895340467,0.347099305793066,0.472945742665102,0.549570934351533,0.56874235420711,0.500676017818759,0.360557593197326,0.219548694351377,0.151938029910188,0.195457488393361,0.306873108809694,0.323801298646141,0.0800765940325623,-0.360353107143079,-0.695400497847832,-0.71459142143132,-0.540437230104598,-0.442639817955189,-0.515356818642246,-0.645576850820553,-0.704438465838993,-0.655504169644798,-0.534084284411682,-0.401772775959753,-0.293480117794536,-0.190277053055184,-0.0704671113691107,0.0489941157056767,0.165458661168283,0.321662330164276,0.521287691502278,0.66767577878926,0.647066077528265,0.450237724209811,0.198420201987452,0.071851507827992,0.175534759553751,0.410415550228577,0.50929363273085,0.28097075492553,-0.181835304013075,-0.579062793112888,-0.680392326179559,-0.515730640940469,-0.316347830502146,-0.284084131885214,-0.418947893490413,-0.568307630027014,-0.602929097699501,-0.504829822132789,-0.326870494050999,-0.136984246178922,0.0119933056440376,0.114943661641202,0.21979084568596,0.374787383854903,0.576051312184556,0.767551148499171,0.863485061081841,0.783361020538911,0.53553058630217,0.282040242906852,0.2382010238209,0.443344825817524,0.664931466888838,0.593043024610175,0.148964107274903,-0.409730984472465,-0.709211892334047,-0.606550111734584,-0.315639250204907,-0.170502888004667,-0.294453634645425,-0.543474823862485,-0.710834346952935,-0.687437606843888,-0.470969880435347,-0.153981243361631,0.101119345261185,0.190389529423096,0.183015296451182,0.23474746630979,0.408118577017277,0.641857977860904,0.834974779402485,0.875126129687566,0.676862464760144,0.32798819082588,0.120525952106302,0.258669641952967,0.551464025565978,0.566482547964349,0.134393402567958,-0.431108342098113,-0.693509702306404,-0.571319007498739,-0.353487080360459,-0.318229551787996,-0.474506418276059,-0.653157197504607,-0.714752828183771,-0.632234404746169,-0.453701401045411,-0.251013636875829,-0.0935158214094738,-0.0152312954890846,0.0276615698441558,0.135369062457339,0.356662793159883,0.618145376711964,0.788560764457729,0.789392510907917,0.62708452334705,0.375493491616169,0.177132988686044,0.189345989699845,0.407456490297492,0.5616698655315,0.341807265998716,-0.224994743584602,-0.739428000327809,-0.84632974446352,-0.605262110427128,-0.377134906748987,-0.411607588951678,-0.635679836261625,-0.809464792781173,-0.782374104019503,-0.5847768162183,-0.350405397698595,-0.185489045107546,-0.0875972407767148,0.0129757874432651,0.141260668672741,0.261773573705447,0.377448137115195,0.548892941536885,0.768459865729014,0.899791596850576,0.812028554622828,0.531764108879245,0.231091642724888,0.107731685913531,0.254514857304497,0.537969490215344,0.613512367261267,0.226390977162654,-0.437756442375847,-0.853420099907077,-0.719232657898025,-0.310258182909324,-0.139362839615786,-0.357340185183988,-0.648697812323133,-0.681809898542548,-0.480006501570749,-0.294115256065644,-0.246429508828603,-0.228794069687203,-0.112947695737589,0.0677936635833544,0.190330781827469,0.221561871265646,0.257115189557395,0.392290117207641,0.597949731355873,0.742342005850021,0.727832320654831,0.583175141371051,0.413573226362482,0.305619035706003,0.311140833733599,0.439284853461564,0.573069226495692,0.47913324727798,0.0526601318834255,-0.480327259003691,-0.754069172893452,-0.652912194048995,-0.394662067915051,-0.253933710118024,-0.329915966530059,-0.552838263775888,-0.766496285907742,-0.797511231079064,-0.571025085267898,-0.203126080004629,0.0775967760567671,0.130951080642575,0.0195758856667666,-0.0707157969102228,-0.00713171510530131,0.19545133689945,0.427945149641448,0.590445066316508,0.637447556367213,0.571603737525528,0.42710817608471,0.249999883331685,0.100465928750971,0.0691534226915218,0.207589127993271,0.390829307636057,0.353855768817312,-0.0246562925694382,-0.533205428692768,-0.817843662438632,-0.732743112630221,-0.452329276796399,-0.275979216585807,-0.358203805066246,-0.597033597421187,-0.752976417714392,-0.677065001614594,-0.428126932261416,-0.182119664576727,-0.0534158175323108,-0.0131088661186924,0.0375242256647201,0.146358873705553,0.284107549187996,0.415940868171334,0.545173313812161,0.666894248871204,0.719183633730796,0.623345401665417,0.381028097297081,0.127737534308607,0.0621694071254727,0.249368808382666,0.469680901850483,0.370783319665962,-0.132820077382655,-0.688752681180233,-0.855742076652489,-0.585428160108936,-0.246159144872654,-0.188287926076712,-0.401362448173683,-0.619913040022906,-0.651467731731024,-0.508823045913353,-0.282356874033463,-0.0257545378642185,0.197615689580601,0.281955036968843,0.206103179068616,0.137397004762236,0.284750086960394,0.643086131225622,0.964460652833214,0.994965472950001,0.700057906033426,0.281475200829717,0.0303733419825977,0.126839878408832,0.47376136090213,0.709096262726833,0.497866767839225,-0.107509028217707,-0.668619593645166,-0.802583154875518,-0.562097845163046,-0.304134043323424,-0.268111720429208,-0.398901235954082,-0.525539575359253,-0.567717215734628,-0.538968285720648,-0.43984566301933,-0.238572648594413,0.0320057043180001,0.238862534797806,0.290673016096653,0.276182760732124,0.36715347985735,0.600109230701909,0.835250228108677,0.909820760224117,0.762924937511393,0.457569242964265,0.172313799560477,0.119864542313758,0.338990127770577,0.568474116571093,0.463151421142311,-0.0179585571566089,-0.539300094841305,-0.751760384511589,-0.638257607985697,-0.451013490246097,-0.400430017765342,-0.485836319161343,-0.580578226158678,-0.593827587707506,-0.530657392809759,-0.434693631256531,-0.321014189720328,-0.181320982748683,-0.0193642697573712,0.151326881182367,0.316163266793747,0.441984887912893,0.499991147854193,0.533395288542,0.629165036034686,0.770058023315243,0.788591987896845,0.562958917891101,0.2341583428047,0.109889259133044,0.294266945311639,0.506838802813607,0.382859608564853,-0.101844450247569,-0.622684580071607,-0.865093176792391,-0.769902818475448,-0.498245081950781,-0.304914968428072,-0.387839663568958,-0.702704304500485,-0.94525002175768,-0.837543644869998,-0.424331221899802,-0.0136173861836105,0.146340780738893,0.0707650926046199,-0.037939333327296,0.0047795852974731,0.229754946562767,0.525097506131141,0.747791590646256,0.818503790623306,0.727570559569283,0.508709153685219,0.255112670478896,0.118258158714142,0.195021789085246,0.391301891310407,0.464263897945419,0.250996200261741,-0.169267428257472,-0.567012511251952,-0.77398328723997,-0.767048269046009,-0.613697516170358,-0.433168123728357,-0.37569645108696,-0.515794377601328,-0.739155466996008,-0.814564438944749,-0.618776435587141,-0.264502509947362,0.00957622379700995,0.0683306229027232,-0.00528803733233449,-0.0255111782852823,0.0935764913320243,0.291188061222831,0.482755423189332,0.635372471144826,0.708989344401041,0.625485829795458,0.372817112339295,0.102724692587192,0.0378617510402301,0.239615895405113,0.497217607674191,0.497864861862897,0.121191382637968,-0.441264482862487,-0.848000318927737,-0.889829217127619,-0.64953905083467,-0.407592726644029,-0.382336495445481,-0.558351635834009,-0.757455653709959,-0.827081829705428,-0.729676710241406,-0.506880838036642,-0.236694379961882,-0.0170939343679314,0.083090482336703,0.088771124380137,0.10271636938668,0.202898435209262,0.371329933403997,0.534131453950844,0.64358703380894,0.68603992863413,0.628978395445668,0.438126188642889,0.18455040385826,0.0570948939394988,0.167794175844374,0.366279870953049,0.354533946602993,0.0148447645047344,-0.448582609663491,-0.725113645155735,-0.692313384500587,-0.469534524378143,-0.260455399451044,-0.20555216751932,-0.319423863104006,-0.475785807207404,-0.481801768978284,-0.255036010664233,0.0773302598175816,0.312185648479456,0.38522315972961,0.401841416125579,0.483988326960474,0.652366711460557,0.851421247697671,1.0215249029984,1.11348957318625,1.07511647978725,0.894634015257937,0.673969974719656,0.596036333955967,0.747599694774049,0.976689411377075,0.998126865536045,0.691453654731037,0.25354569221759,-0.00356940767682788,0.0325154615582495,0.225605520668183,0.388210182832889,0.416478895535071,0.288759026361771,0.0836921808711337,-0.0151884285782001,0.121228519940656,0.392422171359037,0.566582517670287,0.555629724837837,0.487754441700932,0.511771590252602,0.637236892547172,0.774906357528078,0.834207367574576,0.755959669981761,0.531255496642391,0.235972337892741,0.00925261358644965,-0.0548485667945629,-0.0165720126183441,-0.0716887237341077,-0.372901176670779,-0.857382670676352,-1.2984607594254,-1.53551111515946,-1.59473131666169,-1.59147257525076,-1.61592593468015,-1.73108121292826,-1.95147032941633,-2.15891707833278,-2.16027223654556,-1.92370430778943,-1.66335691815892,-1.5877224307403,-1.63680494151225,-1.57685378196653,-1.31341366154251,-0.995162492131509,-0.805355316671307,-0.769587336531497,-0.824517024863173,-0.957317257374737,-1.14946233206426,-1.26150942151033,-1.15288313180122,-0.915076760516966,-0.822851625877318,-0.985913075222025,-1.15419577287706,-0.98283653307981,-0.402064652907465,0.439355326943412,1.45239703227695,2.70858009005746,4.21650220239244,5.31711515968178,4.88292521344044,2.33305894712628,-1.54350076803778,-2.35999893451321,4.83805419663359,13.2027009522936,8.4473466519517,-5.71861425141924,-10.4332685738936,-2.92531495141039,3.24955021030716,2.77425026861445,0.237350186139771,-1.58206081110587,-2.46816389559186,-2.226542966791,-1.07359281447922,0.393174385338894,1.46293513235924,1.61984703302706,0.989183587654479,0.160079468725538,-0.388517977786343,-0.660743653977354,-0.871913005010368,-1.0158707850979,-0.744275996990034,0.394284182905026,1.04058146169872,-1.717351020571,-5.71635572508478,-3.90063745442873,2.99219187834799,5.85032004259888,2.57098876778205,-0.38573733883854,-0.0918245150501866,1.270743500235,2.19685832164348,2.56063046598576,2.43570838987956,2.11271990343666,1.79714657366619,1.45016293276968,1.02001926933162,0.600047055694984,0.457203143687741,0.821976935992506,1.5853131446614,2.23057683374677,2.19855146506142,1.40074662937849,0.248011163171953,-0.529982134627372,-0.161495861183614,0.974083319063393,1.02955832552261,-0.774341136841017,-2.75609115497595,-3.38016644394121,-3.11599389382516,-2.97563746353619,-3.23096179084013,-3.65706124830176,-3.88102080453201,-3.6709777752357,-3.16631124322235,-2.66963438046834,-2.31161875185829,-1.98803700384337,-1.50958538796027,-0.775861744147345,0.112403648136581,0.843298161662499,1.0838544556449,0.814627789405795,0.443957782159186,0.45417186376333,0.889125268746606,1.26485513874028,1.06223488887257,0.296773340890888,-0.475221001689686,-0.740343970939302,-0.531401952778035,-0.290126154298293,-0.337932959638891,-0.612695477773153,-0.85573714693986,-0.891443313674556,-0.720681436118221,-0.461939442493291,-0.241759114262842,-0.10485385789423,-0.013887849791675,0.0901175762883245,0.267218176426605,0.566120111655114,0.928298767654937,1.12389764766679,0.914185519402483,0.340972308540285,-0.20047467554676,-0.270024839791342,0.165627585489272,0.606433091007774,0.457544218590991,-0.341712631864569,-1.20594075939511,-1.49431788377109,-1.14853017422833,-0.66192229418038,-0.487514119999914,-0.625733920682366,-0.794235127604535,-0.813099326546498,-0.690662541378211,-0.446260538081107,-0.0509123048598546,0.443956374432531,0.872872503160899,1.1264972317389,1.28327445738979,1.50328220677062,1.81579140145871,2.06696212477628,2.09504067813629,1.93763071028624,1.83218030933005,1.97527734658323,2.26987948094001,2.36287443491428,2.0124666992103,1.41359940468699,1.05885867567969,1.22554073645,1.66525290310116,1.86749887911286,1.60224186974189,1.13208218075366,0.882547989191872,0.964339456482746,1.06829371599409,0.831014841783279,0.206944372617977,-0.616569992274594,-1.48021708749089,-2.33856990446106,-3.16529575922391,-3.58582826144431,-3.08903560683305,-1.42491933484899,1.54645341397757,3.11746368422812,-1.89312460617239,-9.3665286622024,-6.28658964667697,6.02405929701481,10.9721408399488,4.85816696129761,-0.70260442480292,-0.783742619159167,0.766373281673509,1.85237873033277,2.49740611942249,2.40419430640914,1.56804678423198,0.291794832957903,-1.06263387027425,-2.08353766180022,-2.54823586420892,-2.51103727088891,-2.22461182580898,-1.93218606317424,-1.67755968601023,-1.41608439870069,-1.19041201135273,-1.04737813959601,-0.882457525556092,-0.531445449034201,-0.030565963239873,0.304431349797611,0.133873046553291,-0.536101713838645,-1.25484536396703,-1.48680417041042,-1.15063835577195,-0.758204437859419,-0.91418372555453,-1.67864004577626,-2.5129271907071,-2.8509211191445,-2.62215397760512,-2.20268251718384,-1.97136998975625,-1.98976067255409,-2.0484602323015,-1.91702117799288,-1.53105250006948,-1.00455442751966,-0.512496290661711,-0.150623504503571,0.122999094402767,0.426075906904577,0.834724348557012,1.32126122002757,1.79159621628641,2.15310055138123,2.32247312757849,2.21031299762712,1.81080211707609,1.35348595384002,1.22931561237313,1.5808528303843,1.99350006803809,1.81516989962518,0.881745358681053,-0.220196013196458,-0.733907208192078,-0.487520574046224,0.0210871940112686,0.198062513276248,-0.105262563895104,-0.567015987893166,-0.769769932972431,-0.556782369082836,-0.0853792512214434,0.375762916165046,0.665667550698313,0.807675021110651,0.948892463794897,1.22882961226031,1.66029450525572,2.11257832559789,2.39774206635752,2.36412240319748,1.96763378420418,1.36666807097877,0.938805955794049,1.01530862499747,1.46637736720934,1.67282388472745,1.10982595706399,-0.0516932230009839,-1.0725904046969,-1.37942147466085,-1.06067249457471,-0.652425758113681,-0.582043337642003,-0.872602058442669,-1.26884579131791,-1.50559820846191,-1.4416859772874,-1.07023736577187,-0.530808624981036,-0.0678680336066253,0.165459608063033,0.277121490576549,0.512261033303042,0.954395256699132,1.42062502495624,1.63177942616485,1.42950674687827,0.897695743004704,0.37313928459461,0.255016291795559,0.616906962116886,0.997759723096805,0.763905614612336,-0.212905067354216,-1.33194211422679,-1.83158960016965,-1.53423508820997,-0.959545257519798,-0.782806147200608,-1.2047003242982,-1.85605249462322,-2.26558736032126,-2.00338958254736,-0.827103638809844,0.302645322614304,-0.167565445021061,-1.60408387338395,-1.7414006867956,-0.434301619813619,0.477241986458612,0.328046663765527,-0.141096511462117,-0.388362565076788,-0.342549701449066,-0.0781345668200258,0.282699174642717,0.664625349775094,1.00624638662157,1.16232171849982,0.981489916925106,0.527819136224102,0.173174784567663,0.289596171967811,0.764794669737992,0.979152358105967,0.422726791295397,-0.715895034812826,-1.70632947749955,-2.00422518545403,-1.71193118291117,-1.33500171118419,-1.2402236762307,-1.42254764812646,-1.67199892191415,-1.79927231545733,-1.69739630816134,-1.33015110086969,-0.765987335658197,-0.191020914730243,0.200970092344989,0.372871257722257,0.482175071039255,0.725957229561309,1.14577143462121,1.60588305032962,1.94349853970124,2.07003990264872,1.93376566483817,1.53262283553943,1.05743791395474,0.875267692837865,1.15520390098059,1.53505849680752,1.38444303458407,0.4897325341688,-0.654795890169684,-1.32311837892659,-1.24388170102749,-0.775201777996999,-0.493176735124001,-0.668690187969488,-1.09974733136762,-1.38161600634146,-1.28549120525103,-0.875752544815009,-0.366154398625006,0.0434596308690679,0.264565465473851,0.377214226282223,0.559872496594103,0.891827493779339,1.28127992353617,1.62565017303971,1.91432953614208,2.08749813082021,1.95008730664491,1.4200468007147,0.810025673861469,0.639505781182857,1.0526141331479,1.52030688728251,1.29249228127148,0.198919972552447,-1.09849127142053,-1.735742376203,-1.48386601970421,-0.901234827254691,-0.711224476676989,-1.11605421041467,-1.70617220177522,-1.94225213449065,-1.65612421555791,-1.10679504743397,-0.641768275336141,-0.378481235283129,-0.199393083612381,0.036151031115694,0.354661369769683,0.721358056613002,1.12937295642978,1.55819634891025,1.86486418060831,1.82088659283918,1.35335227569693,0.742490344278618,0.462674280593126,0.714675336988804,1.13195302157111,1.06887970890329,0.249183260729488,-0.916582403012878,-1.71447322049897,-1.80227215814157,-1.46201210482123,-1.22762137847675,-1.35938288077327,-1.69713502028805,-1.91787344566314,-1.83478213805511,-1.48120954831867,-1.01799001108933,-0.59526599687327,-0.249445273556912,0.0937094827376405,0.502196803623153,0.954158954058272,1.39780249019455,1.80669612701878,2.07966603372331,1.99056460144294,1.44705839529504,0.794926299392811,0.615360434300327,1.05990726307895,1.52531715609898,1.21386809622389,0.0227885526763305,-1.2921515694181,-1.88979316393109,-1.65264024885711,-1.17186733175123,-1.06489068628987,-1.42522261204879,-1.87520426820537,-2.01526472130115,-1.76510167924245,-1.31687464248966,-0.866039704470702,-0.466800353956795,-0.0951474287335,0.277596579669023,0.698702901784048,1.22066989641178,1.79993275290245,2.23005779648226,2.24884038198366,1.79221195494057,1.1619264592679,0.849396294130478,1.07802857365952,1.51477052796989,1.52282899129957,0.763401907259129,-0.457721043295221,-1.45646199231711,-1.76893532792341,-1.49450663237202,-1.11843316825709,-1.06371159100982,-1.38596798187156,-1.80121786397264,-1.95061145463658,-1.67938477984572,-1.12607394221003,-0.558197768426923,-0.125964766075351,0.206356584162017,0.533238753601403,0.90853645744904,1.3603812080322,1.86613039057872,2.24810917681204,2.21517147632685,1.66422003524293,0.940477905834643,0.641383682609611,1.01311425326276,1.56271859290701,1.44693122174266,0.359675151354532,-1.06940697397464,-1.89347006536953,-1.79209175476425,-1.2683278768518,-1.00135881155526,-1.21156485401884,-1.64746365694755,-1.95512949915524,-1.93358631962861,-1.57256803455051,-1.02167495725485,-0.504238571712638,-0.144542252933207,0.126760683584939,0.442409578342684,0.820967314739651,1.19574320637645,1.55430272158889,1.90398725063538,2.10023407225199,1.89289686539417,1.2805026684836,0.713020506729933,0.707855227375542,1.20191060570837,1.47141468365104,0.864010240263556,-0.452439412747278,-1.61950533563493,-1.95782227213737,-1.58579950173669,-1.16482533501802,-1.18032745578209,-1.57107537304298,-1.95516144347843,-2.03395845830599,-1.75553133413713,-1.24551716382307,-0.698691415171629,-0.278989457800378,-0.0130742440661909,0.223463164133822,0.561893896765152,0.995662557128813,1.42072263188223,1.77075199575671,2.01344188089815,2.03663795732574,1.70653619807006,1.13346408444172,0.742677451580873,0.873335555626509,1.30281004924777,1.36060830781187,0.625645584265649,-0.584178965705421,-1.51667248454418,-1.71710357307979,-1.37578428459057,-1.02402152618006,-1.02076343750984,-1.33317768342563,-1.67733229333483,-1.77079485735683,-1.49957390774339,-0.964893261783682,-0.409327918347036,-0.0340871360814358,0.15742264431737,0.32006718267453,0.579249865938546,0.929114113029311,1.30782822404083,1.67868351848159,1.96647877818347,1.98204395676052,1.56991507856193,0.895406240087448,0.455918399330676,0.625889514471077,1.16851718190127,1.34999402542478,0.666449535982695,-0.584695236537817,-1.56511802308618,-1.7145529368948,-1.23036482183084,-0.77205987303917,-0.813450351299949,-1.28613802712591,-1.72985986922233,-1.72525609419272,-1.23959792777214,-0.61708910050251,-0.232592026236157,-0.14143151394589,-0.0819328751793231,0.191308372460769,0.655258253285734,1.13026847146745,1.52300511742256,1.82506405465255,1.93651081575071,1.6834824523008,1.08799088641541,0.522698913077585,0.442707127608861,0.879603061066874,1.27086062702505,0.946287804622287,-0.166904752758604,-1.41204723736983,-2.02600644183654,-1.84044012380495,-1.33875885886154,-1.10634853354154,-1.31606111342582,-1.70751919123789,-1.91927428704832,-1.76692496551489,-1.29582634652236,-0.703975534022489,-0.215943605508806,0.0736915157604618,0.277761613501975,0.597951019748686,1.10895465903461,1.67346160466028,2.05191370409892,2.06473336331871,1.69089168295613,1.11813600782168,0.713497270424421,0.779999028555717,1.19490155415177,1.37896614499497,0.817435544815248,-0.36426858125228,-1.45591046817224,-1.83121877245801,-1.51285677999186,-1.06750364794013,-1.01167176805625,-1.37487483351099,-1.79681712610825,-1.92652411170047,-1.67160545282302,-1.16410170864296,-0.619862055195596,-0.212155180563584,0.0421291679709362,0.302398183959854,0.738558645468232,1.32977538005645,1.87114317301499,2.15128342628285,2.0720706117072,1.67145679286629,1.15746003164938,0.877385771024218,1.05328825124586,1.45187861826346,1.45822404101205,0.662965678598148,-0.631851419559498,-1.6292165455674,-1.7979331667952,-1.34888512758297,-0.948898442513719,-1.05170945984504,-1.54567915729405,-1.96548679961006,-1.94850144873848,-1.50107328408604,-0.906175063479093,-0.426197369289217,-0.105576816589262,0.170208949592163,0.50649521565725,0.935008221009466,1.43745221441143,1.9287979206896,2.23090937529475,2.16065880423939,1.7087865052239,1.13599876832425,0.840213341216121,1.01512485185843,1.37383518673943,1.31430311757851,0.501828118464383,-0.736687412790896,-1.69168621730063,-1.91829955504604,-1.56999316030909,-1.17994722442573,-1.18253383596043,-1.57846972969916,-1.9914983478523,-2.04969353675193,-1.69735057362812,-1.1379319996939,-0.58550798988999,-0.155615897881232,0.116283846017895,0.299036345522938,0.55876547731838,1.00046494815633,1.52977550383917,1.93743342546774,2.07460959213332,1.89649537267025,1.4453478630405,0.926226253039458,0.701529472898679,0.959475709894027,1.34925710744033,1.19292744694187,0.219286934272619,-1.05519342114604,-1.82837245619422,-1.80521274973294,-1.37967331384339,-1.13373806124227,-1.30168412956871,-1.67778205614204,-1.90556473123724,-1.8119530783517,-1.49073685927698,-1.10381874064301,-0.688272802226858,-0.224505860243341,0.200115787538196,0.455904874067756,0.584387966989789,0.794685517290778,1.20741547508229,1.69724165287678,2.01707696695671,2.00470627108385,1.6638439912482,1.16040931328242,0.79851494114758,0.853437182870552,1.23962945219942,1.40889526679345,0.831686730767529,-0.362252256276634,-1.41983054565897,-1.72533638214758,-1.38450101225984,-0.997547799162331,-1.01001248865248,-1.38108774111687,-1.75894755461745,-1.82917230498344,-1.52524258275685,-1.02641843344959,-0.583605262958406,-0.302446636933154,-0.0939487344216342,0.158066620113439,0.449224779176947,0.71423516297705,0.957335941669815,1.24731676426775,1.6007652086651,1.89918882987828,1.9245267235147,1.53440465762209,0.890154702567946,0.469002749908259,0.658697848054451,1.23994674820924,1.43620374301502,0.689702146190166,-0.661426596692899,-1.67259972165128,-1.7589223684452,-1.21944974519767,-0.802678558876667,-0.92786164538725,-1.39870358349617,-1.73544679404811,-1.64646169929564,-1.20881130004248,-0.708650778066776,-0.363624474981436,-0.17678760748318,-0.0100026161756359,0.241002841489999,0.558693187703027,0.871870420425897,1.16825464482207,1.48857078679132,1.7898741159119,1.87013764514992,1.53517610329592,0.893134258693481,0.40301769438197,0.481653439548595,1.00533965402874,1.30589549855723,0.797443704918457,-0.393379543269822,-1.51456706388494,-1.91237605277078,-1.59804777051912,-1.12048823664539,-1.00037916522931,-1.3177172147934,-1.74022952963079,-1.86770413545554,-1.57672244469892,-1.07819334442709,-0.657217402289656,-0.395596138518023,-0.171523703515311,0.136717259325653,0.524610577411703,0.91446140281309,1.26578251939116,1.59725723486735,1.88126598807487,1.94543313919634,1.60255008739011,0.970341230084469,0.544028786831195,0.729725744555728,1.28607055228066,1.44080274278124,0.689812685398089,-0.62912543266652,-1.6665407323764,-1.8839836968305,-1.46492914705464,-1.0146167238687,-0.993169954140488,-1.39511589964859,-1.83718343671078,-1.92253430575186,-1.56979635233264,-1.00832577977231,-0.490804692484177,-0.0956771505460511,0.20657898995378,0.451732445469017,0.717619099338511,1.12858207546221,1.69264335220656,2.17618971463118,2.24780797523015,1.78533334873864,1.05106935744461,0.563226553173511,0.693134520631063,1.25390101618988,1.53657214658325,0.943864802256306,-0.369103402297866,-1.59657239274199,-2.03560929129675,-1.67061972105523,-1.07638614703546,-0.870977616375879,-1.22962032310101,-1.79739019706841,-2.03537763319546,-1.70081150050476,-1.02388543213037,-0.436677482510375,-0.156211379853004,-0.0297035594844401,0.246131858312363,0.784018009304447,1.39991385185602,1.83312635875523,2.00126867210285,1.97645005374647,1.78659815279597,1.41431095085413,1.01818668988526,0.9291743291441,1.22779837908615,1.452462412828,1.0061985770794,-0.125389896906312,-1.27633503299946,-1.78562935904373,-1.62382220876141,-1.27828272122156,-1.18755410309439,-1.41463908347562,-1.74594008706703,-1.92333189703748,-1.79944156103379,-1.40366305102989,-0.895227306476716,-0.417180399923692,-0.00176439461754793,0.377739227019526,0.722683125085015,1.03145024265306,1.36657925311942,1.79024742483637,2.18057537839166,2.21414808120744,1.70010556068271,0.948110329438948,0.607088532975417,0.963985817107281,1.49204695035539,1.3252329732672,0.21831963939597,-1.14472012880046,-1.87415629593176,-1.75830931005514,-1.32880788967134,-1.18382103280124,-1.42775593049282,-1.75604813051201,-1.8921483183274,-1.79972794215712,-1.54262157538662,-1.13472366286578,-0.604735268373632,-0.0944847503730007,0.234854603132323,0.392723570903363,0.578202173239189,0.966220266309956,1.49987369848766,1.9325260292842,2.04857643598981,1.80008478755911,1.30097476442067,0.812083184612215,0.6629397619069,0.953642561740325,1.28860312335143,1.04220111038304,0.0406982799539982,-1.15709863954813,-1.79962632028134,-1.68215964886967,-1.25082627468937,-1.06044621146475,-1.26417885475998,-1.61068772467945,-1.78726104709615,-1.6702755399354,-1.31220167651882,-0.834824557989571,-0.378266922179316,-0.0516159954990542,0.150553404887581,0.348732988647234,0.647793820359266,1.03025356123386,1.40566287617759,1.71624572360376,1.9204105607497,1.89906079662352,1.52815774528527,0.939232841877383,0.577078967961922,0.776360547577802,1.26855642170117,1.32554705090062,0.52963422854684,-0.711951666919531,-1.56639342584913,-1.63007732722103,-1.24379340844942,-0.998696877814199,-1.12109627707023,-1.40182432970481,-1.55769912127796,-1.49125810774601,-1.24505039091969,-0.882581414471121,-0.481004234700759,-0.132366156388115,0.140008425087059,0.411533303712497,0.743342507187904,1.1037859433646,1.44280820318176,1.74195715680133,1.92722452090261,1.84453087485555,1.44008270800215,0.933826695289313,0.705037985550928,0.924657133057227,1.29220574009208,1.2262208748451,0.428103929788119,-0.747186793261845,-1.58050318905867,-1.67613676440524,-1.29630969992738,-1.0085882366414,-1.10995355556314,-1.45259166972239,-1.71819390805818,-1.71688471552471,-1.44202476777052,-0.984482651498681,-0.47297708213579,-0.040115918726254,0.243276002802197,0.42782706689492,0.654640525181465,1.03581208959845,1.53927048405175,1.95810888268771,2.00519773997712,1.54388069443658,0.819453465257251,0.382823297637191,0.592240188759227,1.14005466383486,1.24258861475306,0.446690239623677,-0.831705520252842,-1.71915933159458,-1.78510162896645,-1.37816571968719,-1.11205945956828,-1.23941974938523,-1.58041755176851,-1.84347595491176,-1.84680474079714,-1.53776663340991,-0.995853908342494,-0.435084459244264,-0.0698944574385645,0.0927763568824158,0.274173737654985,0.688992837436802,1.31698175152214,1.913429860334,2.18680688319063,1.97017718623526,1.3460389273218,0.689055203741615,0.476369411946071,0.860591012509368,1.39048804453884,1.31780115485301,0.333991924878981,-1.03500085506918,-1.89103329527518,-1.82700315427895,-1.24729638997793,-0.852507873214317,-0.956702023689258,-1.36331263509037,-1.72201615489617,-1.80051745868136,-1.49233781414751,-0.833203737766707,-0.0837227360610067,0.39883145633418,0.509828175820965,0.541379463680039,0.874491452594448,1.5478601058337,2.18456033704529,2.3316701116914,1.858300714923,1.08350649902119,0.566078111722882,0.674947593992039,1.2124317433901,1.47929101553606,0.890796379985325,-0.398449645411606,-1.58110398000114,-1.96192859358185,-1.57733864233451,-1.05008705369448,-0.935330917949547,-1.27084138740115,-1.69011105485728,-1.83923908951886,-1.62831581525284,-1.16368569599785,-0.584622755953192,-0.0136086578405844,0.43671831664815,0.721187093306317,0.930213577759823,1.23759464634098,1.72204854682065,2.20707672174792,2.3206278381346,1.84578222993757,1.07557775513998,0.670785574170715,0.969293509562364,1.48967579916232,1.36474056104197,0.324928228258871,-0.963991607042634,-1.64631696580735,-1.55927316449438,-1.2253466436145,-1.15486499264449,-1.39331190701251,-1.67820909756142,-1.7892996273448,-1.67976436123909,-1.40750390136075,-1.04891575716373,-0.661712533483886,-0.278809676761153,0.0853505157850466,0.434921588608185,0.798462067867058,1.20568926229688,1.63142674062776,1.96085806868282,2.02283618054741,1.7092929977369,1.15073949381542,0.758610650929726,0.900650880913592,1.40290350569263,1.54236033499229,0.779289816984378,-0.559202513411202,-1.56112833018538,-1.69315110467598,-1.27705302404428,-0.995603603547079,-1.15434410326578,-1.53302735047542,-1.78122294351618,-1.7599903289695,-1.53115138788764,-1.18828879104289,-0.78126893392575,-0.354409255648423,0.0162906515200836,0.267926850471594,0.43595657492945,0.644918658829164,0.981080958077341,1.40988396395617,1.81282000487066,2.02179516128408,1.8496450037063,1.27550568382786,0.654826400047526,0.528967809914295,1.02691851258639,1.55071341873578,1.29541437006952,0.130096791004228,-1.20403287180335,-1.84611774257462,-1.63219458345088,-1.10070369021453,-0.862053147327149,-1.10296799218447,-1.57751294845162,-1.88483594529759,-1.77006411404934,-1.28987348049712,-0.731052698082522,-0.344919991764666,-0.156504040057191,-0.0141045216452675,0.220034318593028,0.542246256815304,0.850042388558311,1.08960089853096,1.31848686908997,1.57665442768957,1.72890284233988,1.54782638885334,1.01902021479669,0.495741332400333,0.41516994557854,0.80073734853122,1.1236720734428,0.782892293118081,-0.255351326877284,-1.37638052694765,-1.90602161064072,-1.72444140407437,-1.28850942747505,-1.13377574489707,-1.40184458283852,-1.80111746210386,-1.95323890715465,-1.74005063269073,-1.32555211302051,-0.916641053467555,-0.585559593248658,-0.305493346398036,-0.0508086042848118,0.193132918041087,0.465344798469874,0.811417755367298,1.22566146302689,1.60690429633601,1.75933443006695,1.50664889594942,0.920409661646675,0.412853185969647,0.428206031447442,0.936482209684409,1.32842427188024,0.967955529167727,-0.127576867872246,-1.25058189697049,-1.68891220347283,-1.38761221684513,-0.893639015111426,-0.735626812345179,-0.966139121585419,-1.26530014343999,-1.32607109358848,-1.07467985024458,-0.62835555761634,-0.14976442284199,0.270888886089121,0.642916753624034,1.00635379961184,1.36520842078435,1.71116563958566,2.07411213238856,2.48526869313988,2.86968712711783,3.01413019191475,2.72837531832724,2.10796852928837,1.58732209532796,1.58376873355331,2.01088364789655,2.23661818315523,1.67201517628579,0.424751666773137,-0.738278363466021,-1.13766434418888,-0.821009065175552,-0.413811919608673,-0.434543354635287,-0.861429983689705,-1.31181236589057,-1.49001957170947,-1.40871847853864,-1.27083252087739,-1.23459155958435,-1.32694886804913,-1.52563741045566,-1.75086363934636,-1.79939562679403,-1.3821897433724,-0.273764865493001,0.843923839206349,0.0619693685310759,-2.80317935316794,-4.1393254762814
