2.10472877630797,1.68625321871129,1.22213562890574,0.654152956536256,-0.0360444233530565,-0.787981118225403,-1.5465860325713,-2.23858681341538,-2.74977440149788,-2.9962815471378,-2.99402426942552,-2.84028995654268,-2.61234997480443,-2.30753111698549,-1.91487151526201,-1.51067535848578,-1.23116309716857,-1.15042508775313,-1.21482693865585,-1.30230480531366,-1.32689372231972,-1.28577832886756,-1.22618881027352,-1.17855184711776,-1.12478338666235,-1.03668987904198,-0.937518789751939,-0.899961553333994,-0.96611911029007,-1.07718480434232,-1.1005470852968,-0.935670609744695,-0.590563715563278,-0.152828254641847,0.300478584323125,0.744503294403857,1.1609207091803,1.48232156374842,1.61485940601172,1.52049940819637,1.25894814142565,0.940247095182576,0.647748739530086,0.41101079554869,0.229113162108597,0.0908018323604998,-0.029178842542413,-0.170130342391988,-0.36326413458266,-0.606325265873486,-0.858215680376255,-1.05144151076195,-1.11386122061601,-1.00231328041501,-0.732369233337459,-0.364024333735644,0.0520389543762574,0.493562209926764,0.916735481106831,1.2188755224955,1.29714589835398,1.14702226300058,0.871769163633668,0.586077052088659,0.333360768619685,0.103516932439608,-0.104382701583361,-0.269950911075508,-0.386673568357274,-0.478066449592592,-0.580896566075426,-0.727828537714109,-0.929911100119254,-1.14357891346,-1.25941247447849,-1.16616144186985,-0.850594207749649,-0.413356284259348,0.032962470959362,0.455210809911432,0.861284882106314,1.20169382952246,1.36822624974165,1.29968051124458,1.0506767153332,0.740849142850042,0.461507603962298,0.240053328886888,0.0616405643409056,-0.100173595965089,-0.259821794767218,-0.408432298375747,-0.532261295437376,-0.647578423704828,-0.799014410218766,-1.0007669103905,-1.18211782250336,-1.21815510444235,-1.03294091068926,-0.662110631058495,-0.202013505207172,0.282717533967126,0.772784060768974,1.2283593976951,1.55538183071397,1.66270706582715,1.54042127116639,1.26781936615858,0.952915250159628,0.673232925060403,0.459890432261381,0.310759887454047,0.207251877537758,0.128863658000406,0.0637480706767341,0.00495401441211314,-0.0670526764236229,-0.18988545062512,-0.388881787219941,-0.630078446615073,-0.814370942944457,-0.841116879083322,-0.684760548322315,-0.400190094159875,-0.0583389311137645,0.301551000995405,0.653160898123403,0.941992610374458,1.08656014231758,1.02856179072629,0.783183626926345,0.437801790414594,0.0969065778629285,-0.175725534385275,-0.371491635074271,-0.51249413208444,-0.619904737994238,-0.697360220068573,-0.739883267600688,-0.762433215827975,-0.812753318142601,-0.935684112041204,-1.11347248394659,-1.25097274145499,-1.23710548792275,-1.02807389582652,-0.664707214454681,-0.208929898254916,0.312616724291405,0.878459195080787,1.40550159281891,1.76221738972734,1.86937384615283,1.76617573584586,1.56270194461243,1.34403130107862,1.13103577856139,0.912952224514628,0.691797180408554,0.490493915308883,0.325112439174897,0.175801117940512,-0.00602021163424059,-0.25239474596989,-0.53918406677957,-0.793646170406248,-0.938889806027143,-0.930087121477674,-0.759322593173404,-0.444142848220933,-0.0197078093305194,0.462915967561289,0.937039304514379,1.32376630345549,1.54508442411378,1.54718707092969,1.3244695885268,0.932947639922186,0.478142867542059,0.0654666596906642,-0.258355096700746,-0.511181043473942,-0.721117983983938,-0.886843626243926,-1.00417450249006,-1.11014007663014,-1.27079897950332,-1.51568720373855,-1.78657817919891,-1.95600594867346,-1.91178860126959,-1.64146897932334,-1.23330705703859,-0.785725696735026,-0.329612004359082,0.137509999944611,0.556840930821993,0.798732409064801,0.77217776570106,0.520872746004276,0.187386858241917,-0.107599335617539,-0.336639863185928,-0.532999720717105,-0.71575548719257,-0.859027317194592,-0.931869175778276,-0.957134058586264,-1.01151736845137,-1.15370565431428,-1.35591018816953,-1.51164852582243,-1.50875379277527,-1.300417911705,-0.919847031593142,-0.433902528312522,0.111960446002964,0.692660610195402,1.25289084979748,1.68817926666979,1.90166069001186,1.87636569678174,1.68151009723453,1.41561082147704,1.1526390558228,0.927664839613425,0.746127423973527,0.598416073183219,0.475970506020866,0.375251056472739,0.279699458816933,0.146939410360923,-0.0642507741232826,-0.342458148979798,-0.602635033565161,-0.728715038936281,-0.652072288404423,-0.394259426315763,-0.0314802694270412,0.373290717757726,0.788948253420378,1.17744529594046,1.46482659750489,1.56659426282637,1.44413082896347,1.1423232981104,0.773737907695927,0.449914279260586,0.209291533907777,0.0103444250795462,-0.199516018581115,-0.41477878566086,-0.582424068553098,-0.678115958254604,-0.753657299423462,-0.893471779484821,-1.12238530685871,-1.36235368627044,-1.48486037007968,-1.40923769092772,-1.1541956789348,-0.79816794593258,-0.39777847481738,0.0390394923102098,0.493300995124158,0.8761387249797,1.07230017026211,1.04884331858016,0.888994152203859,0.707348463948918,0.559399600131165,0.442486684395173,0.344888074012048,0.261284414071223,0.179346715825604,0.0839097825917381,-0.0261697847732575,-0.143912092520227,-0.277818662662493,-0.451891377103337,-0.666552308907145,-0.859395730134972,-0.922123481292035,-0.778319353339928,-0.446966809724328,-0.0145411554640671,0.450799640903099,0.928125039984072,1.38335423222085,1.7205932670265,1.82854407221187,1.66947637709627,1.30761041207991,0.860658492770427,0.438379314667459,0.110570828432528,-0.103952546462122,-0.233291124230984,-0.32232679339082,-0.392360035454119,-0.43423976466286,-0.44791315981018,-0.481048067748447,-0.60291551242234,-0.814099897296673,-0.991199280969656,-0.965494249665314,-0.678773410132764,-0.233956151108115,0.225732089893326,0.649009760800638,1.05330084010365,1.40663742209304,1.6001542101018,1.54976331972969,1.28532733966288,0.923839321008798,0.582445878137988,0.328214916584581,0.175422199424801,0.0958871776229423,0.0420812223993189,-0.0135793302761299,-0.0654238882118298,-0.117159269807265,-0.224793782308814,-0.45929867387873,-0.810535744947144,-1.15274407055541,-1.33642421974742,-1.31357966078835,-1.15069424124455,-0.924481330595473,-0.647049296791087,-0.312447678020708,0.0219947294382047,0.242079461826955,0.258216579251893,0.0650575801256761,-0.263859651265474,-0.623763439768956,-0.936208190748976,-1.18370179237155,-1.39377710400534,-1.58862851205395,-1.75880693960229,-1.89152861779592,-2.00965809564555,-2.15838576884285,-2.34566559474346,-2.50561528379167,-2.53015224353444,-2.34357407508809,-1.95458874522229,-1.43780312194351,-0.864930179101972,-0.267499475982322,0.323785765339433,0.829006901698888,1.14880428037958,1.24850363624437,1.18633402880767,1.05495892573092,0.919480822617853,0.810252148195773,0.736678772404918,0.68874336719132,0.64662855871084,0.603634085164694,0.565767218655595,0.522031424142235,0.435713867559668,0.287908036879971,0.129093522314982,0.0667844138712465,0.18406476982584,0.472645855911302,0.856422557770666,1.27095842397317,1.6953390251365,2.10597282364079,2.43280536954348,2.58804345488285,2.53187466831665,2.29681261698474,1.95687325462174,1.58793218517258,1.24655027333373,0.957741872929526,0.713076157389202,0.494043788998198,0.300364335156378,0.140436457227203,-0.00669285164361668,-0.195598258905438,-0.459347434804648,-0.748859277386451,-0.941725700886388,-0.931353472110325,-0.713698263215909,-0.37381677848485,0.0095224299710095,0.413241810214385,0.814706146903747,1.12986172762603,1.24884585527128,1.12932812032633,0.834352822251759,0.481599448789496,0.168649893208277,-0.0622416427536461,-0.216390473084461,-0.321993112714994,-0.40401598537321,-0.467062890282558,-0.503137683023369,-0.523242176872873,-0.576811668319496,-0.720279526542525,-0.949632263731787,-1.16950976270941,-1.25074803254493,-1.13009978563616,-0.846561279550545,-0.479143037634006,-0.0719897621913662,0.358264993574907,0.757343225892151,1.01678596770422,1.04529793590219,0.849514031389798,0.532566368391571,0.213344212059406,-0.0499413152531622,-0.264459235545312,-0.450690730787934,-0.603067175361964,-0.704376781928164,-0.765128915700004,-0.832388835582093,-0.955511326325426,-1.14916212525822,-1.38793743500526,-1.61888489034245,-1.76956407148981,-1.76721773742624,-1.58167741324261,-1.24922179337444,-0.836274288612631,-0.385828528644307,0.0780656830649789,0.498309614186566,0.773129261060869,0.821882910681747,0.658367724326679,0.386163043822092,0.121302855588116,-0.0764980517776308,-0.207495070277106,-0.291306286773016,-0.336697370240733,-0.345290209749653,-0.330948529807863,-0.328269701808302,-0.380544935248378,-0.512455000328755,-0.700575487203509,-0.863617656660244,-0.893419479504512,-0.717991681336007,-0.347190044079321,0.144807057837659,0.679918834321856,1.20629287966231,1.66896240377662,1.98172213985995,2.06285838193309,1.90399405551949,1.58951186511943,1.24157093484084,0.946050291457996,0.723943068748164,0.558071480790873,0.431787844804525,0.336524160504741,0.252827520581297,0.141923953629828,-0.0360913193634718,-0.29392065502653,-0.596292078703378,-0.857155551426389,-0.970123199831799,-0.870814181402527,-0.582810076453323,-0.192555238051675,0.223942219455813,0.631777325048238,0.990297657719376,1.20955039644261,1.19359634314599,0.931737039700338,0.525554405518166,0.114915591939102,-0.21749938667355,-0.470451912405086,-0.672840292380446,-0.828539194371754,-0.917479443056985,-0.942127430857316,-0.956822759888748,-1.03586978970882,-1.20499754935916,-1.40534486838923,-1.52897164116248,-1.49261346690983,-1.28016378599518,-0.923223171434343,-0.459209189848961,0.0774562979389235,0.631839235633444,1.11791748300339,1.44132950575691,1.53728364111925,1.4045949962365,1.11783832153258,0.792543185241805,0.515469235720858,0.30566892443192,0.143780007061027,0.0202254908386512,-0.062270210745767,-0.123296583703549,-0.218686614306476,-0.405731126929428,-0.688279403558812,-0.994057794188187,-1.21095267492835,-1.25542260485444,-1.11466361220508,-0.830576341839322,-0.452818425654041,-0.016299024083033,0.436496967477682,0.826671330625888,1.05386418332417,1.05401870841526,0.845942965461699,0.520377314782526,0.182243398929218,-0.102029916184118,-0.315429393304313,-0.46857731956754,-0.576072804370359,-0.647539151915244,-0.692529561671885,-0.732878786524114,-0.808171301027622,-0.95438222219928,-1.15721066054275,-1.32396885905362,-1.32620771808008,-1.09620486299355,-0.677684554991602,-0.167530346463017,0.374109823536744,0.926856058372931,1.44212334849118,1.82328307708141,1.9912932241178,1.94960256204151,1.7756942712395,1.56312834312424,1.37438556741512,1.22923784168067,1.119143015899,1.03045683252583,0.959999890384509,0.912307531719495,0.881912384943687,0.837838642907797,0.732358429626497,0.542136753955325,0.313131624313047,0.154723666770457,0.165250663449376,0.353904623751058,0.647871446908268,0.97809793073075,1.3314771748411,1.69886290559477,1.99641973011476,2.08487017106904,1.88440967632164,1.45317836634355,0.936668722311711,0.448992598636369,0.0162207026789419,-0.380364047124375,-0.74201874383983,-1.04646914615097,-1.28052571998709,-1.4578461674763,-1.61308578585385,-1.79067148001204,-2.02604784034298,-2.31537506067116,-2.59633968024518,-2.76513813903413,-2.72840364362858,-2.46045444869263,-2.01851635801661,-1.49648091616842,-0.968906350424538,-0.48888103108305,-0.120201803484591,0.063928890474921,0.0246086735352573,-0.206855407110118,-0.533477892675735,-0.832851323675066,-1.01339466025725,-1.05420780018255,-0.996855727927474,-0.896605025209204,-0.780067342537894,-0.643120950876676,-0.479258763965425,-0.309301567310023,-0.188593413793944,-0.174412184951676,-0.264248134026049,-0.365387838270871,-0.351047402199306,-0.162623312040096,0.155111233419706,0.527581256781145,0.933926884452056,1.38712066389633,1.84147947650477,2.16546797940889,2.2366735948636,2.05537596457052,1.74577783466018,1.44800486035715,1.22317717113284,1.0584738363398,0.932726321486333,0.849579232639299,0.812998053074463,0.797851136326549,0.757091609475404,0.64906894568817,0.455920307585922,0.193126343321556,-0.0847993868490455,-0.298333633177874,-0.384544051317394,-0.335659279450401,-0.194616313057317,-0.012568422906994,0.18012019837729,0.355367917090706,0.454319226439332,0.398395119706442,0.145549540818879,-0.26986056031624,-0.757676420220954,-1.2294364311322,-1.63778552290939,-1.97136539669525,-2.22548996836633,-2.38714740503102,-2.44644375133324,-2.41013541497467,-2.29958250596817,-2.14756717367695,-1.99802650237567,-1.88205712368218,-1.77741237701545,-1.61448511539639,-1.34585784780058,-0.995157774983048,-0.616929810555383,-0.22588611103746,0.203199559479911,0.668798040389678,1.10586300886653,1.43064787964165,1.61197966103649,1.68687711082199,1.71322466877477,1.72418915735334,1.72742761536286,1.72288415597408,1.70584068359629,1.66691301166819,1.59971453082439,1.49426180138214,1.31982051154533,1.04361398766668,0.687288607642182,0.347641451461121,0.137516494942235,0.10605231917629,0.22320614318501,0.430812023347074,0.689485165789117,0.971646280537074,1.22342284344781,1.3555335269912,1.29117678647613,1.03099046494732,0.663487998962213,0.301389245147578,0.00757622764886521,-0.218985632726664,-0.403565144057116,-0.558498944232951,-0.677370096269762,-0.749883280282912,-0.781871484615906,-0.807775602354839,-0.878381170059596,-1.01756849368576,-1.17676221744896,-1.24200848041345,-1.11452558631793,-0.796218271126279,-0.379497191682764,0.0516755918531212,0.481616071532694,0.909906426663798,1.27585972342102,1.47876330245859,1.46792903510946,1.28398675655975,1.01326508685196,0.727995049939474,0.473217932108536,0.277223205671524,0.143481415966386,0.0409115386185061,-0.0663984760108359,-0.171568604594986,-0.231064994840983,-0.234695873079318,-0.25088371730439,-0.373286562450175,-0.616719761990731,-0.880723789845058,-1.02838800752146,-0.998894048278027,-0.83245594109222,-0.590457255880522,-0.284355381015946,0.0915693939152405,0.481387078277942,0.767152032040662,0.855787626673064,0.746743169375703,0.517570102624634,0.265386192956308,0.0576694993385078,-0.087972387715664,-0.189013970820477,-0.262121962813122,-0.305431017577282,-0.314468878004678,-0.302990280814384,-0.304898692596616,-0.362010625331448,-0.504291202523912,-0.726148930294382,-0.973334617530176,-1.1561600081505,-1.19077149471224,-1.04865363733043,-0.771003926563613,-0.422640583622257,-0.0357260549539578,0.377394831765085,0.758436879579062,0.992182230240464,0.989340498530919,0.766969223749709,0.432794292348629,0.103714633940021,-0.154366151908506,-0.334482116451189,-0.46418195035261,-0.568432479868784,-0.643883139451616,-0.67151845714414,-0.654152156659261,-0.631327670629192,-0.656592451234983,-0.765214249397402,-0.951533059125673,-1.15670039544622,-1.28088933930085,-1.23403527174955,-0.994703029076045,-0.618003528512036,-0.182114526272577,0.261628233754079,0.678349186480989,1.01095448429706,1.18208670322421,1.14124568507212,0.905389071219786,0.560269114168787,0.222946838842883,-0.0185038656286863,-0.14792781423655,-0.206475926819635,-0.23854529658039,-0.25964893757024,-0.270192085078523,-0.282467796486213,-0.327888721331439,-0.44262656780636,-0.641829729233312,-0.893126630773685,-1.11030573643724,-1.18777132810511,-1.06126810953091,-0.741958528136311,-0.290992402383968,0.228085862261499,0.757697230851057,1.22013587127277,1.52082798024706,1.6013329435913,1.48194679341654,1.24157649360671,0.964763282719402,0.715630082604888,0.540228038678036,0.457532304876299,0.441402837778053,0.437058189742001,0.410004052757564,0.365076047237722,0.311001435528803,0.228578281560139,0.0928098900667711,-0.0799809985365957,-0.215845989410428,-0.216670146130258,-0.0256816716252366,0.324922110076145,0.740048637743645,1.14159940372329,1.50369354039649,1.80280781575141,1.96879202883411,1.92192305994605,1.65480979387675,1.25522069320415,0.844089853980078,0.499362821876092,0.233051298468056,0.0194967436122798,-0.167307748653982,-0.337165616444741,-0.490500427984444,-0.634529016933409,-0.79139612823412,-0.987403088300727,-1.22454920830992,-1.45382055307314,-1.58328014951392,-1.53158174702506,-1.28474577147481,-0.900146947162593,-0.458203146629534,-0.0178085067566127,0.383483559310193,0.700152670850274,0.866354712378488,0.827961450677366,0.597490204940669,0.272183975797085,-0.0220918113009946,-0.218405971267049,-0.338803437150012,-0.439243737992829,-0.54129153565392,-0.627633970747424,-0.689293028619595,-0.756076658227051,-0.877298767821282,-1.07531566809798,-1.30840129826415,-1.47295605019881,-1.46047209609471,-1.23567725893487,-0.856986779892975,-0.410249924866921,0.0619063745681451,0.543069936919969,0.972489732805892,1.23669550128931,1.25303594741237,1.04668704183487,0.730634469497381,0.41892126125487,0.169409473672334,-0.00751634582968044,-0.12036234003327,-0.187946791939439,-0.235400726960676,-0.280370545672637,-0.334628755220586,-0.426039970855161,-0.593282365716884,-0.835490510490015,-1.07833971176709,-1.2091155003731,-1.148552240122,-0.895453669645389,-0.51613997001545,-0.0890136658555231,0.348684278042971,0.788861290748698,1.18361889782798,1.42296861122073,1.41863171811578,1.20049880596986,0.898827748429702,0.632878532554158,0.439194511086073,0.298031111019643,0.189922304411528,0.113342357415496,0.0718181719859999,0.0606908472185818,0.0574625234745632,0.0197513448087934,-0.0950267060389081,-0.297042767666835,-0.547608502542438,-0.768678252139728,-0.869365412279983,-0.786987928771086,-0.526954895979429,-0.158450759055143,0.242488315850342,0.636798093385943,0.997938977597327,1.26332728171781,1.34717218316035,1.21637653509264,0.936872146133826,0.626155026170009,0.365682599131934,0.170762658067439,0.0269796422101318,-0.0760588536608485,-0.143689859275069,-0.180715979312488,-0.193015363474357,-0.19794856674151,-0.227970393527344,-0.313446480746314,-0.468054043708225,-0.687366911031038,-0.93492899797594,-1.12470830208995,-1.15469424100316,-0.985850881959,-0.671969195813014,-0.293809637954581,0.115065391812815,0.548953900043409,0.951378378721236,1.20066595542965,1.19801591848654,0.959228198681995,0.606247876889711,0.273047478224233,0.0244328034270289,-0.146594576228008,-0.265647639218446,-0.336799595223462,-0.351590503832629,-0.318280747078519,-0.266661771578902,-0.230224543539936,-0.238242161953811,-0.320433728139761,-0.495188545031948,-0.735597460351816,-0.9518269159438,-1.02979134778743,-0.910248223191161,-0.631471601299085,-0.280209572177872,0.0941628486884254,0.491996396446526,0.891248388051246,1.19969477761755,1.30635102548004,1.1769140809073,0.888756337016502,0.5726344301985,0.321252096218518,0.146869088623411,0.0136761330829666,-0.100580561011801,-0.178702069305403,-0.194704433311489,-0.158248276058602,-0.116793590739729,-0.11883972175489,-0.191198828789517,-0.345966439572165,-0.57683273234258,-0.831745482934911,-1.01043570837175,-1.01797607811319,-0.828180964395779,-0.488264558508861,-0.0659041732593977,0.388492006814231,0.820648211441615,1.14393835095397,1.2696350613409,1.16899587520852,0.893548705293519,0.54422195621197,0.227796675499367,0.0140710615156365,-0.095725122972027,-0.152592890494313,-0.198287940456588,-0.229756885382798,-0.232388179809794,-0.229982719061589,-0.281598835906759,-0.43308448335819,-0.681696863439954,-0.975426061202373,-1.22456250279863,-1.32281791013417,-1.19810723146711,-0.864965901297584,-0.409345873386272,0.0894867965375305,0.597957112249147,1.07650918362847,1.42477015612148,1.52443010520011,1.34576906091399,0.992762668290818,0.628183007976933,0.35286993600187,0.159738705647993,-0.00436281006527931,-0.155301705321812,-0.263076244567324,-0.309423636033873,-0.325682457499746,-0.3684262905203,-0.476810975080901,-0.660200139688978,-0.898260705053795,-1.1229717660195,-1.22064135347175,-1.10248994779131,-0.783742189560401,-0.36004252881493,0.0980320001708571,0.584850040955913,1.07924672581244,1.471196549706,1.61844490790528,1.47366020741003,1.12823376921238,0.730423243596075,0.380681345471336,0.103064665947354,-0.116097541279685,-0.288253730450237,-0.413967035819612,-0.4926057852895,-0.533178819497788,-0.562060370688749,-0.622272407516399,-0.753860448856127,-0.956558386339012,-1.16147161505333,-1.25118206707222,-1.13488508506957,-0.817478215363721,-0.384199446766992,0.085982074518301,0.567540471464351,1.03742814103652,1.41287640676773,1.5842289024748,1.50984087442409,1.25506497400148,0.9372569588942,0.647101992931712,0.418710430136312,0.250916779907821,0.135482030173202,0.0619540945139815,0.0118276304837823,-0.0341943682713672,-0.0858088973828642,-0.155701866137673,-0.279579957837455,-0.494107647768939,-0.77279941375868,-0.999613588383688,-1.04185502334992,-0.86118217922957,-0.53377620590155,-0.153964795963189,0.251729223618887,0.688708873909988,1.09928745498915,1.35741857383251,1.37589375244578,1.1919442673645,0.927304526114029,0.681130553174191,0.48038945342161,0.314210167143339,0.178758714272173,0.0813924298559176,0.0227598517108799,-0.0107011860115265,-0.0390064600154485,-0.0804271919703698,-0.156635455012696,-0.299452120009226,-0.528245886305435,-0.805505155207279,-1.03068121420711,-1.10133648355066,-0.984595804058764,-0.72392111780733,-0.381324563804278,0.0111724550254481,0.43174475672703,0.81333745089111,1.04198767020879,1.03301505762243,0.802458240127013,0.453294250353118,0.0992442304082426,-0.193737842369841,-0.41365492990791,-0.579221211625913,-0.71148914695076,-0.810160563442412,-0.852126212139112,-0.823094156565241,-0.752333240419911,-0.705291902517799,-0.737795260047121,-0.862397994334781,-1.05109056007475,-1.24733199694529,-1.37244271354136,-1.35239232251213,-1.16423224287594,-0.845751623040234,-0.44857683401662,-0.00314108352491415,0.453462913765441,0.840907672209364,1.06179348015099,1.06697815310059,0.88576298413507,0.602038995053972,0.31303543535681,0.0944726953213285,-0.0266177261823736,-0.0760764697938092,-0.0971248270021207,-0.103595375634636,-0.0757599809488154,-0.00251871829507335,0.0864818827613203,0.135306679314423,0.0946132150091021,-0.0608351882149887,-0.316266799113425,-0.591963553239731,-0.755074722432762,-0.699887790952194,-0.426485837504851,-0.0210742756879193,0.43702979038655,0.918487620320039,1.39152694416864,1.7656710382176,1.92231948546963,1.80285738411206,1.45866506837684,1.01916620650979,0.614095750668978,0.311501082454937,0.108570648059089,-0.0293397200440349,-0.123458955875281,-0.172633593427215,-0.177315765524938,-0.159493348325889,-0.162986338768753,-0.242846495073981,-0.439159327726684,-0.734076596788872,-1.03220051844834,-1.20405553346622,-1.16503838467369,-0.918584040029698,-0.530334553667961,-0.0696400546648897,0.418316570886817,0.886406966660844,1.25003662276699,1.40596763534572,1.30587312265876,1.00822532071376,0.643700533619715,0.325597447563753,0.0957731636560051,-0.0576392397819911,-0.158427365977339,-0.22435251863474,-0.266202850487844,-0.287125091055806,-0.293872261208618,-0.319029752628523,-0.415682144123553,-0.607570863056263,-0.842435318126089,-1.006298065049,-0.995480693749001,-0.784511312947819,-0.427569186355084,0.00571753404442364,0.48297972483679,0.982153993771487,1.42685037955854,1.69086688874709,1.68902234510646,1.45028271323921,1.09121317224271,0.728420274452027,0.419131876150309,0.165235797976155,-0.0483774713675005,-0.225864438406922,-0.361785731267162,-0.456998964796375,-0.52875267205011,-0.613207548048722,-0.759333554966625,-0.997724552168575,-1.28908304425633,-1.51027520633948,-1.52874633807676,-1.31147749178511,-0.941496466428185,-0.513518292558603,-0.0466736451368535,0.465311075499243,0.946696635582299,1.24292100388273,1.24567325532311,0.988644260593166,0.6127775725839,0.25558346918217,-0.0252938309107569,-0.246559882208452,-0.440779038878325,-0.607160132300649,-0.717017347286277,-0.760991163701005,-0.776892630835501,-0.822402128661731,-0.928862993049507,-1.08903190634806,-1.27189702389779,-1.42431206783843,-1.46771517951398,-1.33299440379898,-1.01697298715293,-0.585613494266332,-0.110485974276322,0.375361398003513,0.842589618495394,1.21356440176301,1.38531073162548,1.31312937116002,1.05453955127718,0.724608186545049,0.420147976481345,0.187256559160302,0.0330657230478716,-0.0602283636047121,-0.12544237084357,-0.184190257517656,-0.222724576475854,-0.215382439078151,-0.184240612987165,-0.214574605813158,-0.380385967917395,-0.648017023599704,-0.871868058550694,-0.902900997992479,-0.703374299735643,-0.352293661262013,0.0523228379577219,0.475830598563366,0.922558029077759,1.3495186364789,1.6423640594924,1.69646273793509,1.50896554048404,1.17688759166223,0.817069929480048,0.503751290377956,0.266594197100701,0.110794443752328,0.0237143183825929,-0.0203888896679167,-0.0428583941647446,-0.047973634737908,-0.0369548929719023,-0.0371758674029086,-0.108585329837749,-0.303455150487926,-0.60385317981001,-0.899325332336711,-1.04394773964632,-0.953501384137379,-0.653473212381213,-0.23583892475391,0.219955492067331,0.67602108751265,1.099662006489,1.42341158317657,1.5595207951649,1.46368764858651,1.18945647100077,0.872130373533948,0.640273791187443,0.532722657024545,0.503418201471996,0.498574116328886,0.50989678120912,0.552903589140278,0.621628074875567,0.685915823860451,0.720844783515347,0.714259582677411,0.644444071885554,0.476106168548057,0.204463618055478,-0.0956064004328392,-0.290491168671254,-0.283638532781349,-0.0878586783205598,0.211421482753649,0.550725196213568,0.917003127123392,1.28389474208091,1.55475429947761,1.60028852217695,1.36320071422178,0.919929709431396,0.427159490354546,0.00531716898872652,-0.320356658896607,-0.578319553737914,-0.782501199736512,-0.916857806776228,-0.970890405844917,-0.971733375816122,-0.972245849449579,-1.00680835510876,-1.07176253110119,-1.1624618436356,-1.31179435237777,-1.55454104699451,-1.84836313870646,-2.06660457914956,-2.09662832476137,-1.93261871245554,-1.65175562480007,-1.31513227066345,-0.929873813823416,-0.512791962345639,-0.148787342916413,0.0475624175898358,0.0182770175453464,-0.20373921571705,-0.528060759083725,-0.857308486439877,-1.12441630331128,-1.31138817866005,-1.43927978673122,-1.53230887410329,-1.59165890923195,-1.60846563881375,-1.59414637614247,-1.58289271163163,-1.60664694389743,-1.68511021600021,-1.8371121205562,-2.06834146621874,-2.32852421791612,-2.50577429151241,-2.49840745987516,-2.29493478291306,-1.96811169480508,-1.59627544727881,-1.2119217334956,-0.82990662108976,-0.503882926166614,-0.327971170906645,-0.365464174290815,-0.57426021561187,-0.816231336174184,-0.954607878149755,-0.943551516273762,-0.820162239863377,-0.625920815969779,-0.363864058526949,-0.0258523934065548,0.375291461658004,0.81014736649981,1.25071050937781,1.66214415421162,1.99512523832451,2.24927123533738,2.50863306513185,2.87411303529775,3.37724518506251,3.83580047532127,3.97481852260899,4.00926361153243,4.53606674252178,5.51503188112017,6.28655340775582,6.7117869243008,7.19688672680581,7.75745326068573,8.05096547855979,7.97738142984566,7.63588828987923,7.07623569656741,6.3311071606274,5.48541044137586,4.64288975012713,3.82584414929421,2.94928430847268,1.931911341524,0.808953768098628,-0.277735138744966,-1.23124092686535,-2.06876259552687,-2.83187187476612,-3.50491252743673,-3.79025027126932,-3.259799966703,-2.30946044993146,-2.01009383950519,-2.42370351569063,-2.61396269353571,-2.51664467833231,-2.97224737548628,-4.14513565314615,-5.46654547032546,-6.55849942711446,-7.32123311605523,-7.74195310193801,-7.90602583947629,-7.91499694663634,-7.8201998416208,-7.61576022016908,-7.24340852450985,-6.6514880280624,-5.8368068887872,-4.83624351721832,-3.70722564449994,-2.5091952060501,-1.30218962576123,-0.163651041938964,0.809810268751249,1.53551818157254,1.98546587667822,2.19462954443663,2.23793276341689,2.20157096011326,2.15469859473692,2.12422467076213,2.09815690983052,2.0652240351894,2.04568818867604,2.06902144022695,2.12178815172153,2.13277248988113,2.023098057021,1.77814168809967,1.47556134150702,1.24032492730956,1.15929439333403,1.23089294143556,1.39673574196465,1.61149773990359,1.86391616693085,2.13152461176893,2.34017927410599,2.38852783649755,2.21568989757625,1.84794513000968,1.38793973502981,0.955313545078703,0.618644746283934,0.369307252333177,0.158229464297934,-0.0411808042224456,-0.204411137696964,-0.285981675174951,-0.279930431152412,-0.253414308920926,-0.307269052758826,-0.48163674398748,-0.700916042507382,-0.83174825478087,-0.797949452132417,-0.623962088713274,-0.374052619826573,-0.0808262733811016,0.255042807393112,0.613559598103166,0.922831447942767,1.08438964469112,1.03652578967204,0.799453431854677,0.462600662818586,0.127455748956183,-0.145573542902808,-0.349309553004938,-0.50312106998449,-0.620075621234064,-0.696908301706109,-0.728116829489643,-0.72681213789533,-0.732818169835656,-0.792575088539613,-0.915346765699185,-1.04520037111107,-1.09075065065168,-0.994628318363949,-0.768258474482109,-0.456342998966316,-0.0884681353137879,0.315835649401955,0.709105546086948,1.01035530511712,1.14569430197695,1.0936755721968,0.896803004548488,0.632344399021358,0.365873750242777,0.126402658734723,-0.0784893466836269,-0.234887838198179,-0.324451620204927,-0.355022694818347,-0.372029041586745,-0.423649365062846,-0.52060261460016,-0.643911688189028,-0.779555317299839,-0.913692783194126,-0.995530353065215,-0.949189103703192,-0.744500188824965,-0.427738484564223,-0.0657225990685008,0.308601596202233,0.674108350931775,0.978109235029825,1.15082702161756,1.15729370607279,1.02048946785571,0.802593954811787,0.573121560598879,0.382760608935582,0.248236463617448,0.153537931874173,0.0705662451945715,-0.0104219090741432,-0.0700950929662051,-0.0928856636446938,-0.112841486147359,-0.204769433356297,-0.409883675907567,-0.67500139254487,-0.879919883165431,-0.930267672987945,-0.823064224575064,-0.623206354339975,-0.384326056082756,-0.109227910499915,0.203614120344691,0.495344887936497,0.661211375772744,0.636326390856422,0.450080060248513,0.191616771553172,-0.0618637246291255,-0.277789193251023,-0.453303658102078,-0.592206057854276,-0.693601058377695,-0.748197860130605,-0.747920893994087,-0.70843009617645,-0.672083272317501,-0.675117258915101,-0.722531144140972,-0.804743903234186,-0.914530378918185,-1.02325874811572,-1.05965681329008,-0.945748723504719,-0.656431778921031,-0.231024472885701,0.266445616373576,0.778893440176855,1.24754959204212,1.59637195743781,1.75360426733802,1.69793628238803,1.47552472833805,1.17001478245256,0.863008307940211,0.614652863694268,0.454473388633655,0.375891263162004,0.350774133517984,0.360525358649843,0.406987719751048,0.487053100399988,0.566529397806329,0.591870072635752,0.525837278301094,0.362970409174445,0.117354425104879,-0.181331825853591,-0.472137636208754,-0.669686961141828,-0.715087651572556,-0.615505262416444,-0.41776004973232,-0.156644834362086,0.144378850471624,0.429442386204754,0.604632372061001,0.598057998961502,0.421056257731276,0.161913837774274,-0.080935918135301,-0.259506898948625,-0.379081003463621,-0.457410357912214,-0.494140258562176,-0.477907642449501,-0.410857667084507,-0.318916736693752,-0.238835983144857,-0.196852236412257,-0.200186201348595,-0.248088057225781,-0.343423228753496,-0.477341749088205,-0.59562692372244,-0.602935917395418,-0.431880640896196,-0.105918046894368,0.287906493803133,0.679398491313444,1.03994569324962,1.33486573376837,1.49322187128603,1.45135525317647,1.22006942989816,0.892696127132596,0.58054268214464,0.342929707779548,0.17732724464185,0.0599926584814788,-0.0224300927783635,-0.078753063607057,-0.128054194134762,-0.190830410348486,-0.269392978482907,-0.354533953059573,-0.457089905114694,-0.613117743812258,-0.834078922149435,-1.0567494358131,-1.17082716754691,-1.10895226546882,-0.896142984132738,-0.60616489114791,-0.291114116282208,0.0311411818105686,0.337001765395717,0.569188085637625,0.655082062822626,0.554862892697434,0.302081105267027,-0.0015144427453548,-0.249097749023829,-0.402131493318872,-0.497868424701277,-0.582301605200304,-0.651852168332265,-0.671972603925963,-0.63559776775451,-0.581326007582993,-0.560614766489953,-0.604699679343797,-0.713917157638346,-0.851748135619614,-0.945884735425007,-0.919549567466102,-0.739483095438348,-0.431845502024894,-0.0493607186478303,0.367889481276477,0.789688766270596,1.16196357052969,1.40261793747271,1.45161005931143,1.32084751368396,1.0840108513139,0.822910885839785,0.589732992923895,0.403894600316426,0.259375451145632,0.133433095545679,0.00898113115031261,-0.102159488113851,-0.170810736810021,-0.194313029434063,-0.219340335814031,-0.306935943695089,-0.470041666041556,-0.648799103325835,-0.752892804570617,-0.729633408276053,-0.588093241492197,-0.362665281491025,-0.0716579519712167,0.276404478412564,0.6453470138037,0.95812849429484,1.12970613583623,1.11677304976712,0.942871163243842,0.681382902457018,0.411826068305613,0.184857944482812,0.0188195501209527,-0.0860055744977344,-0.14078155920288,-0.166613905711224,-0.183516575203057,-0.199942694428729,-0.22052017482367,-0.262216025981722,-0.354086597361829,-0.511820046678399,-0.703858323968393,-0.845158818143227,-0.844220498895619,-0.673771364962944,-0.390887065255463,-0.0760416967637907,0.239193377628716,0.562921894019274,0.865605243674795,1.05089204502927,1.03455834413344,0.837205768330058,0.566963645296399,0.317669842334513,0.115204601971665,-0.0446687872738663,-0.153125529695241,-0.201288916291196,-0.205975643704342,-0.195112734649454,-0.176946143077112,-0.145812519476552,-0.118615926343253,-0.145451334877747,-0.269772155538712,-0.477998204640149,-0.691502840305733,-0.813336883707875,-0.791485465372907,-0.638804867325865,-0.393784352899659,-0.0804347507500886,0.279658003153466,0.634161974703382,0.904960057905721,1.02848626789561,0.986737932227524,0.80924630859004,0.556076421396826,0.29336079666927,0.0707633053383419,-0.0870489434415224,-0.17325940358346,-0.192662298376387,-0.166434501236906,-0.129063033203762,-0.102000861154569,-0.0755603597288161,-0.0387101285557262,-0.0263319370569876,-0.108468443605112,-0.313846174951346,-0.573117861123123,-0.754720200099425,-0.764534972261724,-0.61050197115234,-0.369888998531515,-0.102887315434219,0.186524185198533,0.504508025563999,0.802870970075758,0.980896295723819,0.959129951609288,0.750446776916508,0.453947843700791,0.177548435830507,-0.0306517309668562,-0.182171162996923,-0.302041114011665,-0.394754379270719,-0.44434572421781,-0.436046430047358,-0.381042501507035,-0.322589497044962,-0.312112042036529,-0.379485511260657,-0.528407143485811,-0.742520276255643,-0.972789998285568,-1.13088862065458,-1.13270494175991,-0.96027330452341,-0.663481255995839,-0.301886670605517,0.0888030223547633,0.468903417045742,0.76649066691083,0.90377576524349,0.850447721791601,0.647188158181975,0.383419374420301,0.148185919213228,-0.0159913712784739,-0.120539407501047,-0.190746989562254,-0.226357881034908,-0.211476146891503,-0.149716429267109,-0.0705004352199542,-0.0088507157756852,0.00471846779608052,-0.0545470537805863,-0.188746365948488,-0.352725844678794,-0.456682222403697,-0.411978696797889,-0.189698859970661,0.165841431389768,0.584808480469915,1.02031025245457,1.43832684130661,1.77705184217301,1.94694756136345,1.88632843063576,1.61821294552547,1.24930994330406,0.903985222133921,0.647879083104279,0.469100833376255,0.326153597634743,0.202348244316067,0.11032826257936,0.0583616800030695,0.0287264454802688,-0.0145760680365587,-0.109809450625418,-0.282452343163448,-0.522998544032887,-0.770475490412733,-0.932547417394762,-0.942700293171474,-0.805754197935975,-0.581420179404611,-0.322788823212468,-0.0471011934781033,0.226245647161996,0.434523593091001,0.495841659038037,0.369964997834731,0.0850735234595571,-0.280131061585953,-0.629166342864027,-0.887841897847413,-1.04150923101971,-1.1288890554622,-1.18543617241618,-1.20154441168495,-1.14912572405395,-1.03958641605158,-0.938620694523353,-0.921657579036422,-1.01646422048555,-1.17768955693145,-1.30499188574127,-1.29678538836578,-1.11187335656898,-0.787302377084537,-0.388642338181601,0.0492474577847477,0.513049097882902,0.951520475462417,1.26232013480746,1.36070103972809,1.25239595205126,1.0269290693612,0.786956825086023,0.593165380034302,0.462215427890934,0.388935738932801,0.360575853579344,0.361703390849207,0.376530842230333,0.389945875272375,0.387238209752798,0.349151392890059,0.246149970716027,0.0542585457559521,-0.202738446239662,-0.433988976531549,-0.532707583290883,-0.456553774789298,-0.244776316957547,0.0409796333286306,0.367077940941863,0.712304118852263,1.02716656009344,1.23209161809223,1.26111286547454,1.11016638411768,0.846164233929525,0.563540355763144,0.325043830311243,0.143784597653486,0.012947220416077,-0.0687232591708912,-0.10480874619304,-0.111269468839124,-0.103776348448275,-0.0880758097507875,-0.0770373079888601,-0.110137030607276,-0.237024033224267,-0.464580836894534,-0.716759144268407,-0.867259387252538,-0.836298247846872,-0.65027936018149,-0.388653272445724,-0.087027608378141,0.271642957804104,0.668863166920738,0.994190714674568,1.11083912545955,0.975551501690587,0.675232545308748,0.343805224292148,0.0592885051482308,-0.174935030376126,-0.37457334805773,-0.530750345313788,-0.623904895074783,-0.659280146971221,-0.670411849715894,-0.68975810200119,-0.728715651821981,-0.790565399132955,-0.892712451435714,-1.05831996361992,-1.27245963854726,-1.45338005028473,-1.49395066740818,-1.34720080554561,-1.05787623305479,-0.700230884207059,-0.307818172185644,0.112062851494638,0.514314806878304,0.80777484042791,0.921227437875605,0.85871672078765,0.686599943489534,0.487696368349106,0.332376548960085,0.261901710094444,0.268675652087032,0.299988133081105,0.307713888681991,0.298205449539518,0.315880541713071,0.377396223528028,0.444493039934441,0.466726534965534,0.425959081740465,0.329132429257244,0.188783328498543,0.0381418013734094,-0.0550681849257949,-0.0267618181306262,0.12984421577193,0.367445998063564,0.635359649561848,0.903575016378641,1.1369608409127,1.27154999650854,1.23611447651576,1.00339593380338,0.62545826585455,0.217628385566656,-0.108675652344827,-0.312408688376625,-0.424407542416165,-0.488716869516245,-0.518681450922854,-0.510316450288827,-0.473104883953409,-0.430715359607607,-0.4025104421377,-0.399639539321688,-0.436684306228605,-0.532302157530775,-0.684607045687258,-0.843534206356581,-0.922932720906392,-0.859131126563404,-0.656498083229848,-0.36402140434687,-0.0190342469143424,0.359453983449647,0.725942856822139,0.993689235591461,1.08620911864873,0.992983112287241,0.766604902127446,0.480505554081884,0.198365289717115,-0.0367046648016456,-0.208091925946568,-0.320176732740475,-0.379151912795926,-0.38660763330731,-0.35438251435334,-0.308768824478673,-0.274074328427551,-0.271101754008225,-0.333097117289494,-0.485554395900002,-0.688739180766688,-0.832091241612619,-0.817640461573286,-0.635185107926744,-0.339426162767985,0.0205000378464439,0.418456739999695,0.811723995355028,1.12035093343954,1.26485025619229,1.221093740839,1.03154492783501,0.767708210239833,0.491977847007698,0.249214606213554,0.0693614685434344,-0.0384011797123764,-0.0882032698542762,-0.105265979727921,-0.10999987660588,-0.113489061881756,-0.128855037129966,-0.187151987090326,-0.32776922908371,-0.550541765782202,-0.778334408800562,-0.89408523051116,-0.830826526723602,-0.61578618039306,-0.320960282099122,0.0105030457663426,0.370090456478219,0.728200578371386,1.00400672265973,1.10748670065048,1.00730167720795,0.754925711309749,0.447632833116744,0.16619594123761,-0.0620733020980911,-0.24990201755749,-0.410765006522379,-0.5398794920893,-0.625823391245628,-0.66656601662805,-0.67835280128863,-0.703775724511823,-0.801153120401289,-0.992177041340281,-1.20718523174058,-1.30941150802266,-1.2034152653994,-0.915484596835296,-0.548194839226488,-0.165389168379244,0.24553917680454,0.691261815575265,1.08767403269168,1.29441332302729,1.23826417515315,0.982332234520318,0.663893758088407,0.380822089585871,0.15174148584668,-0.0375586069516068,-0.188860217282728,-0.295075740266074,-0.356134106876156,-0.376715805255846,-0.36817187012089,-0.365378594312755,-0.422001011067441,-0.564303434418001,-0.747239308831434,-0.86926080519218,-0.842791176268145,-0.655106389113395,-0.359616498215245,-0.0135811769634387,0.359207314737019,0.740975223297068,1.07973469900601,1.29917442668719,1.34450445801833,1.21145425721081,0.94555802756851,0.627224813777092,0.341268978784371,0.134178624706648,-0.00341010230789724,-0.104583607471018,-0.182207010371029,-0.224987924524739,-0.227199255418953,-0.209090131494126,-0.212280631511447,-0.280791653173339,-0.432940242519132,-0.634605904279439,-0.802940937864514,-0.853270593272983,-0.754167186218148,-0.539017563688811,-0.265343599682528,0.0305202388535584,0.332843783965327,0.608589598629632,0.791739214633822,0.822509958459743,0.700590738037928,0.491004625261467,0.278006184300866,0.11554612624524,0.0146152491718191,-0.0338996156804199,-0.033406954688358,0.0167795240805876,0.101912257474581,0.193268793199754,0.272346693533643,0.330627986398221,0.336520390280986,0.235309077256244,0.0160914688807574,-0.232000318898064,-0.367462194002798,-0.315303976058832,-0.122143557637685,0.119576741772045,0.380626226389007,0.69400477800137,1.04978607637616,1.33880246123536,1.4326275058967,1.3013576391436,1.02952463815198,0.732254792774763,0.478098743688053,0.275649098064889,0.101008301392541,-0.0655510116363886,-0.214494133021213,-0.31758131131199,-0.368811932319031,-0.404384477444301,-0.470437104738018,-0.58221782817804,-0.731779525221514,-0.92083332739101,-1.14923144185516,-1.36665603690441,-1.47421337326612,-1.39940108081586,-1.15360243909815,-0.802189475974863,-0.40127611782264,0.0117953969929199,0.383426663705163,0.637984278167444,0.719456475673785,0.628947119970015,0.422124845372393,0.179546029405099,-0.0267782073521956,-0.156592320856,-0.206933231510331,-0.204173253835989,-0.187668286191957,-0.182550136471195,-0.179689493507128,-0.156398475811348,-0.121771354362576,-0.123450922053533,-0.202637511407025,-0.356410013397712,-0.543630039105653,-0.705691056656212,-0.77730178258918,-0.70539288805467,-0.482009366353543,-0.152231536536441,0.222649787806269,0.598369456567064,0.93165447769419,1.15278196227896,1.191139208902,1.03670149249555,0.758589313828813,0.453717753515024,0.184767878628798,-0.0299588826182399,-0.186027124122181,-0.277475650103557,-0.311010470880601,-0.312300790439129,-0.308739213554309,-0.317992238450769,-0.356275980731874,-0.443461489955348,-0.590211767270928,-0.776725678738591,-0.939067921437789,-0.984011450912708,-0.842259427288366,-0.522163518189349,-0.103519061319553,0.327409861467927,0.725082476879333,1.06183879726835,1.28329147019711,1.32233392100025,1.16347901596359,0.871467671843112,0.547548187151522,0.269703263373512,0.0713713542737456,-0.0508870370789809,-0.123513001963992,-0.173347142211703,-0.204664787631471,-0.205402881746419,-0.184094543838607,-0.194022692411813,-0.304825289606124,-0.535831015942632,-0.815446808557692,-1.01760471861332,-1.04833683720493,-0.89847264058211,-0.617118267338865,-0.249527309710194,0.184495565138442,0.65223353371254,1.06818800357795,1.31826349414204,1.33538056488953,1.14734053240315,0.851013689431154,0.547886240553819,0.298604285011075,0.116782135380708,-0.0107538243386994,-0.0996557426868391,-0.157353553773821,-0.187041116798947,-0.195544278336337,-0.199563043701544,-0.228730474454494,-0.317481020406989,-0.481114115661621,-0.68998940546856,-0.867406162736568,-0.925220784001956,-0.819461762559478,-0.57864587953119,-0.270664276526895,0.0604541440951828,0.41022900774502,0.75741136773692,1.01499182760029,1.07392740529583,0.904474342932845,0.595350174761627,0.28282386302218,0.0497956684054085,-0.10435964667293,-0.214127637110785,-0.290727730176561,-0.317278285133726,-0.283250278499497,-0.206667520596092,-0.124405451333122,-0.0745074079597415,-0.0912950518074048,-0.202734875936223,-0.411783700476543,-0.671549844258227,-0.889063696646212,-0.972134588264827,-0.883148870942723,-0.647122244039011,-0.309559936281767,0.100278758028267,0.553080914845799,0.978141428213959,1.26836612745361,1.3461492135097,1.22225716053715,0.985066430048765,0.736106799562913,0.535508799265578,0.394689245242499,0.301682156407733,0.245092813512432,0.221684840662759,0.232332006044456,0.271546512970077,0.317672806279695,0.337795627377579,0.306980423850237,0.217676070555103,0.0670924974560447,-0.151728525202221,-0.426966795348372,-0.693849025523234,-0.846590770362595,-0.811711240289552,-0.61027809536485,-0.328658953856934,-0.0310627367078091,0.268545003554327,0.542854157855803,0.703435900329135,0.656587229126999,0.39909412341639,0.0322402537408563,-0.319779708053539,-0.590944297699425,-0.779740590841823,-0.902341945391646,-0.959043537712319,-0.941718270916439,-0.854757088980214,-0.718718791962655,-0.562015699273375,-0.416567254517636,-0.311870536597526,-0.26451177847923,-0.282114700944759,-0.377460599823724,-0.550149914353846,-0.738216290959068,-0.820526883583656,-0.70591612326111,-0.412822432951509,-0.0373668187070221,0.343529284920507,0.70639267664878,1.02669463352997,1.23418450633762,1.25255982492635,1.07580823079245,0.78414286009192,0.482420968210106,0.23663919587859,0.0671355188953003,-0.0272558829312655,-0.0601387348203757,-0.0566591115494336,-0.0363952638561294,0.00243987131431382,0.0674665550651352,0.13901394549403,0.160442538483952,0.0681005729198454,-0.159596541260944,-0.470812672237723,-0.757233541356572,-0.915455048996251,-0.902329896188158,-0.732892753475548,-0.435623119373793,-0.0330819991998561,0.426792983108512,0.847287535569254,1.12070747887744,1.19033926519589,1.06813965060637,0.809170346359776,0.487597576799943,0.18063041190975,-0.0559072413613571,-0.205196721539599,-0.279580530980513,-0.297969023605298,-0.274593477330755,-0.221732739336702,-0.157767619663092,-0.111868307010308,-0.119527670595794,-0.210999332147718,-0.393951497541342,-0.630313039123473,-0.830254704695296,-0.894193192405319,-0.77847577033077,-0.512817749789169,-0.151916537229302,0.266767490738203,0.703002546870016,1.07718817854398,1.29166878309578,1.29628113791844,1.11898553072133,0.833338813784128,0.511223088288457,0.206081597293999,-0.0407953216442295,-0.20177021140685,-0.278079487450039,-0.300961907664102,-0.302394123987938,-0.288714403378346,-0.256577237401504,-0.23082059539337,-0.267735899425911,-0.409128280187599,-0.632241245967901,-0.847767716683845,-0.952042405093568,-0.887909742574157,-0.663066319295223,-0.321102100954691,0.0934637063860773,0.539326038703707,0.958423336103981,1.26856190131876,1.39100147381509,1.29582305547672,1.02563369021446,0.675028406859184,0.341600476693835,0.0859426010724166,-0.0768942545839655,-0.163344786792507,-0.204217066086645,-0.229219902894944,-0.25127915187393,-0.263768826672525,-0.263595115942937,-0.279314645084941,-0.363275212445753,-0.540808296617118,-0.763313846166601,-0.921124732055872,-0.918066135962864,-0.741267388364695,-0.4555474764721,-0.132384893932746,0.201335207188519,0.540222556458576,0.846286208113157,1.04130948693941,1.05708908526109,0.886378027433929,0.587952410854315,0.254094654170613,-0.0289223774243728,-0.212577698481465,-0.301626345621924,-0.33899708596486,-0.363469927100469,-0.375379528534667,-0.345297115820471,-0.260743035736282,-0.165568821236772,-0.146827956627004,-0.270088201158678,-0.515975234839772,-0.778649227239005,-0.937395739061584,-0.941348782086424,-0.82525087916033,-0.642755720665141,-0.399531564832925,-0.0707143551828067,0.321843041537189,0.6805205070913,0.896762524432471,0.930795504948331,0.819390368301934,0.629272721754006,0.42094332093204,0.235819537062513,0.089153248160967,-0.0234038397872299,-0.100220328804179,-0.120370479286019,-0.0666539849540131,0.042292822585887,0.154807093598001,0.223582528706382,0.229876500835538,0.164431411202783,0.00652122879060339,-0.240788818458989,-0.495421517419099,-0.624099078917429,-0.553389936685629,-0.327563387592326,-0.0373734076669938,0.274724207747022,0.60643375120402,0.92107375843479,1.13007248267767,1.15559319398103,0.989068668450183,0.690051032763524,0.347374696436794,0.039077142475154,-0.194641013698318,-0.356392870288062,-0.469476819532354,-0.545420731642067,-0.573248932537337,-0.542691738640126,-0.471568596058606,-0.400370671868477,-0.366319889263077,-0.39727204651144,-0.517481877501114,-0.723273163601165,-0.945880175091315,-1.07005382091598,-1.01418829790009,-0.788025710609793,-0.463937791583518,-0.102460764689372,0.275261014599202,0.643736306983039,0.933072448434185,1.05922812235065,0.989344974661907,0.765326621026358,0.472617054436404,0.19598006015537,-0.0086397004886829,-0.122951065146546,-0.160751178542686,-0.154587858023468,-0.136597646915671,-0.117462036762328,-0.0844421083036692,-0.0313263128957872,0.0102319498020334,-0.0196773936662012,-0.162193042476245,-0.398209350363411,-0.646246936641107,-0.801651230629133,-0.79277908860315,-0.616509547349564,-0.325743735830924,0.0200482479857919,0.391431475003096,0.771722362405257,1.10804946028242,1.30216308494965,1.27522154265683,1.0460745196633,0.728612852325791,0.442472584157069,0.236889218748968,0.100815129485857,0.0156829957265121,-0.0236687929635349,-0.0207466773039911,0.0140973452532196,0.0616066665260897,0.0902090694835325,0.0624524000494474,-0.0473642807684937,-0.240188001137016,-0.483806017670185,-0.70462201335071,-0.804845638077429,-0.719690461446762,-0.463214165738982,-0.104620003918114,0.29261977742438,0.68726527980671,1.0267937127103,1.23489301900626,1.25059488516181,1.07240969204994,0.762728730177916,0.416359869748308,0.116046937910847,-0.103166262102468,-0.257118429833136,-0.379154164942376,-0.482800357902638,-0.556737635541115,-0.589349380502806,-0.591036675841794,-0.595912828832468,-0.648697256100229,-0.781986634421926,-0.984862300425789,-1.18507782761728,-1.27823187010223,-1.19421483112261,-0.939209626577745,-0.571329637085235,-0.144801184047564,0.307521758888362,0.739270322424337,1.06560154525975,1.20110625444142,1.12394421310774,0.889232938303502,0.58494145880673,0.289912985559274,0.0588665726698628,-0.0912025965810286,-0.189276769409982,-0.277404825480743,-0.357034809374061,-0.388815094944859,-0.356861488089241,-0.313416153356974,-0.343169716440834,-0.488691946867593,-0.711473549321093,-0.911675722626496,-0.984740199492643,-0.880703810666545,-0.626216153487252,-0.2867107759021,0.0957247796925941,0.515638724639962,0.949534344596682,1.30826088153097,1.4735273852401,1.39104345025308,1.12086524692486,0.793711668547944,0.517892732633582,0.320629135726774,0.167135223081371,0.0252257457797912,-0.0959412256336093,-0.165794935125513,-0.175551748697106,-0.15436138900153,-0.151090135201078,-0.209034170475744,-0.350832030966996,-0.565586026393948,-0.793652547582065,-0.934446787263605,-0.901477414604425,-0.687472940857407,-0.36225625538814,0.00285539481518144,0.387276686855355,0.781085528195133,1.11725057944943,1.28285484032079,1.20737982821403,0.926325393414489,0.552552203650939,0.193258703726567,-0.101732428366214,-0.325563135418082,-0.476269576095127,-0.547177293329973,-0.542111149028673,-0.480298419851512,-0.385722372712551,-0.283811079356074,-0.209717266857412,-0.207517904541665,-0.309073970016702,-0.503659682427155,-0.719967392662539,-0.845953623084968,-0.793263505506369,-0.558564201084812,-0.214927664472125,0.156501288769427,0.508643280093546,0.805819827459966,0.994497391793044,1.02342278401277,0.887368791356402,0.636461703508369,0.343112502628667,0.0689562691505681,-0.141639758464745,-0.262639464022644,-0.301332409562381,-0.300128734063255,-0.298775588288684,-0.293754409810899,-0.252678153855434,-0.172544654210421,-0.109196963028758,-0.139735918846843,-0.296839887671882,-0.5348332473258,-0.748976826138776,-0.832021335963408,-0.733133468799748,-0.476343313501013,-0.123393532914165,0.274624488948728,0.679968566905755,1.03641120547894,1.26655759643179,1.31632976447239,1.19227605413308,0.950077829673512,0.660551760881968,0.390687574161835,0.191112658033051,0.0744851979210604,0.0102326043115941,-0.0401462651196357,-0.0806676446869999,-0.0855256059731162,-0.0456712834229917,0.0043765335998456,0.00981750912288613,-0.0693525879852347,-0.244520745470292,-0.4848177983844,-0.70030259466125,-0.775877227959973,-0.659693674933534,-0.402887571788457,-0.0889720858819848,0.24965183479722,0.611568272890255,0.946338911921937,1.1443157533,1.11799856272718,0.875096095698233,0.508417784003279,0.12894689001102,-0.189305421047981,-0.420467283658568,-0.570169571559079,-0.656590188623636,-0.695306614833279,-0.689902528636633,-0.643334476144799,-0.587349787179622,-0.587077251615741,-0.695583783528063,-0.902573442508485,-1.13259914487164,-1.28770409227237,-1.29554018830874,-1.13713457419186,-0.840974085820673,-0.450694962961421,-0.00395007926429477,0.454292597016093,0.852199940465989,1.10500498484572,1.15969652006083,1.0305358598493,0.79197226377878,0.53365614563378,0.314824944974461,0.151276979453133,0.0342800437052227,-0.0447603000677633,-0.0853792376074985,-0.0863563643029519,-0.0601616911313544,-0.0415548969652195,-0.0807472797489505,-0.21585055436814,-0.434524947008222,-0.657311321646429,-0.773215525897911,-0.710777977281168,-0.480310481127833,-0.146272800724944,0.232778396783826,0.626899918761649,1.00537122691397,1.30458989923127,1.44043966257008,1.36166954967684,1.09766166847189,0.751717198714003,0.435411102493855,0.197227195667188,0.0107283940252342,-0.167394375853768,-0.332479911210526,-0.434265300282361,-0.441767263565567,-0.387800248803411,-0.342879195959407,-0.363975824407694,-0.474523378958775,-0.660022716624668,-0.8540195143874,-0.953496434587274,-0.890163174249426,-0.683127696079694,-0.395358382635816,-0.0542255994930824,0.344471548763071,0.760513697277789,1.08637470414179,1.22158925877608,1.15351885046417,0.958771277373157,0.73821204404079,0.551185664792007,0.399222892327367,0.263658571046331,0.150425160935277,0.0873037115918801,0.0796370881736078,0.0887150462158035,0.0689384645140353,0.0167723202313532,-0.0402728975070382,-0.106551704623909,-0.238698761570576,-0.470936384044844,-0.731525479243769,-0.87421190169786,-0.805723832697034,-0.560349439571552,-0.241202141418364,0.0859641495320112,0.417559877987586,0.742067802376242,0.980611906856951,1.02769048868953,0.851723124571076,0.532754435495111,0.191791997734907,-0.0986661008510491,-0.325636758079381,-0.488377060303556,-0.578316398464154,-0.605510157329745,-0.610706941440892,-0.627678583530274,-0.645586061736059,-0.633250179252013,-0.602062758608323,-0.622530390699977,-0.760136158420398,-0.993318171152768,-1.20371912763566,-1.26016660171023,-1.1192707694133,-0.838369765597538,-0.491172538713213,-0.0954868844468972,0.355829483753965,0.812596467709661,1.15559140341042,1.27888248107624,1.16934839735071,0.904216676877843,0.591628641556706,0.318429131440063,0.126627575726487,0.0126510989763284,-0.0489738507693857,-0.0728594701551242,-0.0588046268837947,-0.0174169623191006,0.0217076614942877,0.0334703476254071,0.00811130300337049,-0.0689450031846991,-0.222309747266737,-0.44792650097851,-0.676133782480223,-0.795428314803086,-0.727074531914992,-0.480153859836461,-0.133452423690823,0.234776340805707,0.592745156458233,0.927688295990048,1.18593190785591,1.27080317430609,1.12365832793,0.800813585931738,0.446225854454288,0.178196950248355,0.0123472366076011,-0.103148764387403,-0.199564837160132,-0.256201733511422,-0.246523951367546,-0.186021696874589,-0.123503257697733,-0.102629792889564,-0.146145312615351,-0.263364730367489,-0.445612200881821,-0.644846529288558,-0.774200920185776,-0.755214463223556,-0.572356297747718,-0.270132132164884,0.101653420335695,0.513802735346575,0.920740046809937,1.23270827069482,1.36024419882183,1.28106437158115,1.04615974512336,0.731704819389606,0.403908074126577,0.117074252403768,-0.0885944107147358,-0.202596695070914,-0.24814506038905,-0.260437251166528,-0.259420140446361,-0.245172792594933,-0.221426857770595,-0.222968113432274,-0.31026355603938,-0.518641669450255,-0.801447215466196,-1.03448144470426,-1.09912796464029,-0.968231833180788,-0.702120562910935,-0.366845077404906,0.0169386295527231,0.435311969965006,0.821623747253169,1.06947022386427,1.10687478593131,0.946558021637885,0.670783785771632,0.37927673409125,0.141525704475282,-0.0224245820040124,-0.126407447092206,-0.187331850967501,-0.210878307554358,-0.200790616509398,-0.169834121284813,-0.136022006070717,-0.115042105149778,-0.127462785298136,-0.21060100536532,-0.399514837556314,-0.674995640989861,-0.94028370515689,-1.07775273198303,-1.03729882611866,-0.856066756491643,-0.593634487675745,-0.273819361293209,0.0972725823996873,0.47611607677756,0.769967357996516,0.887280373487375,0.801247892377671,0.570031569092136,0.296533200779559,0.0612943007723703,-0.112240972608928,-0.233953953568125,-0.305490335281252,-0.315864842808916,-0.266454466466683,-0.175432294258964,-0.0564979854652234,0.0845409038629827,0.223868120810095,0.305904597085983,0.272300931450305,0.113087506871463,-0.110302404970906,-0.301179145080398,-0.391455817778215,-0.365440025199824,-0.232184243703105,-0.00342640961483392,0.296965004304109,0.624249436637899,0.917678388871012,1.10607926898933,1.12787171251294,0.971581539742437,0.692519862017131,0.377812098051536,0.0990368201131402,-0.106289686672319,-0.231733473779625,-0.29348743912041,-0.314120265370881,-0.305249135628952,-0.267863458719827,-0.208249231933986,-0.147410043668251,-0.115867777329875,-0.143960494077282,-0.251277408368727,-0.432087395378799,-0.646319036399027,-0.830326781955925,-0.921796733283109,-0.880007650278564,-0.694803518224708,-0.388021822868084,-0.00671919694674463,0.389713901205452,0.737935200108616,0.973581484354558,1.04259376891474,0.92620151274323,0.66406420003447,0.350814911816091,0.0916392208812513,-0.0605798160377507,-0.128190866162588,-0.162847378008033,-0.1829686313819,-0.168474863828679,-0.109804986174423,-0.0394544220540434,-0.00686955315782154,-0.0381771571670576,-0.134628438576994,-0.295919961110681,-0.515364007447999,-0.746491485895098,-0.900359342487542,-0.899878658814573,-0.736119001471892,-0.46078957690822,-0.127785698218788,0.238880228862906,0.611707427135461,0.917146260127365,1.0598957598546,0.997701224118397,0.776130214494719,0.486771026796717,0.208778108353972,-0.00974447622417968,-0.147537587532658,-0.213333418965905,-0.239556018143143,-0.249754275095875,-0.234401377162384,-0.173149001565007,-0.079948952932656,-0.0137204376483886,-0.0395047785757326,-0.180860045886944,-0.403466408975732,-0.630199331300543,-0.770831226538193,-0.759629716488472,-0.588564116203459,-0.306613857770308,0.024133413903453,0.371744669295763,0.722351217972702,1.02720825642138,1.19123663470069,1.14214955066463,0.905233985091333,0.58921298929357,0.300683021449545,0.0853809944649123,-0.0611444961180124,-0.15788636707057,-0.220656954501875,-0.25631003638657,-0.257361118273325,-0.211881816727449,-0.135904984995321,-0.0941013384867475,-0.167298570075445,-0.382935124402609,-0.678479557954433,-0.937914922673957,-1.06230626115789,-1.01195852540392,-0.803275611160217,-0.481128889715954,-0.0906578069982395,0.329844952498801,0.728877924378017,1.02631054172073,1.14074668175265,1.04517073639696,0.794564270875628,0.49596368440749,0.245403775573549,0.0795669943755486,-0.022234945628578,-0.0902077004796501,-0.122537873588435,-0.0971916216681536,-0.0142408688796514,0.0918267593772195,0.178234148091621,0.213137029556005,0.16901976262966,0.0205733220579669,-0.230685760583144,-0.527459077653868,-0.764710894501224,-0.846047764568901,-0.743647330289587,-0.49959303321352,-0.171681388998478,0.202210969603808,0.582311793305208,0.899762698977144,1.07725147371254,1.07263977332569,0.898340931526119,0.6144276734742,0.308234888827028,0.0560409416246315,-0.116740694494016,-0.232902506064624,-0.316589349214908,-0.361735188678171,-0.351478049627092,-0.290712251584145,-0.205774857693498,-0.121250503455032,-0.0513857606453642,-0.0160739997920488,-0.0540257954409654,-0.199196076037436,-0.428634600055732,-0.644392621925388,-0.732594570749278,-0.648214385963088,-0.432833710657074,-0.152919663164445,0.158595464419893,0.48854578398775,0.786656227676992,0.952145909162345,0.899636195399269,0.641110382192506,0.289940377986194,-0.0267238362343355,-0.256235668967795,-0.417516074610882,-0.528452474225388,-0.568551626080574,-0.520824554466743,-0.420352126693113,-0.331452627512773,-0.281067234628727,-0.240199891835268,-0.182483780910359,-0.143488588427574,-0.197054570023556,-0.370850077410673,-0.601361017768478,-0.776844843623422,-0.816664516119071,-0.711026090015577,-0.497723712263696,-0.213885827232213,0.119625736854413,0.46887174143715,0.764808219389514,0.931360769998205,0.932759347323191,0.787669551243479,0.551505567689843,0.296686682189173,0.0914276434721128,-0.0306449569834285,-0.0844554198928471,-0.105657403040979,-0.108529642586767,-0.0805105882274992,-0.0154366347661222,0.0630333918058842,0.115804825402129,0.112661587435563,0.0343941496240149,-0.13074556936865,-0.366797958675619,-0.606841984187278,-0.75293004590454,-0.734913360575811,-0.551539464694239,-0.255417722724376,0.0955837330809848,0.46403519101779,0.810901164412923,1.06736674179861,1.15620494604753,1.05146469098454,0.808071881364377,0.524376969938313,0.275340715892239,0.0803287668029171,-0.0740688104142708,-0.193882637909015,-0.267308432107809,-0.286550328899461,-0.264086204548834,-0.221096410531696,-0.173701772952299,-0.146133803023937,-0.185337957664166,-0.330297006218003,-0.555058804938214,-0.761625928680468,-0.846719999240869,-0.771638544509203,-0.562843394112153,-0.261685131931419,0.103316853781751,0.495934995818301,0.849546639442773,1.08529229494667,1.15496873802432,1.06525946499123,0.866899855576924,0.625063443480132,0.393420766631539,0.202500973214194,0.0604773235074977,-0.0392134128370485,-0.106621200993832,-0.145098161754771,-0.151010196958011,-0.126953292845759,-0.0973638539323894,-0.108051802722074,-0.202908926876061,-0.390749466096452,-0.624215758429377,-0.808606066659368,-0.844583549781838,-0.68346165581073,-0.355450129034272,0.0520831597969241,0.448008758427894,0.776669952660294,1.00899279196665,1.10490457241551,1.01189792008715,0.723303389906785,0.32460665155353,-0.0475220894614966,-0.299379410719329,-0.429224393881212,-0.493842881110355,-0.540878091620363,-0.572306730509034,-0.564833925843148,-0.517470994106651,-0.470320370999739,-0.476381758136083,-0.564164549947132,-0.723531920546572,-0.90534013583991,-1.0293157190007,-1.01886373033423,-0.848660625289565,-0.550235953786893,-0.16803538158349,0.268670533427699,0.720857430011972,1.11188575416382,1.35323052834061,1.40236807998184,1.28802781638402,1.08027836210136,0.843904726851182,0.618763733132772,0.426788039106558,0.276869034880924,0.159992232725682,0.0561789381987708,-0.0409184373155345,-0.113762779948445,-0.149185084344615,-0.176176326690927,-0.261868906886585,-0.456690596173382,-0.735082448884644,-0.990567647324581,-1.10219681418692,-1.01962201509097,-0.78378774816572,-0.464424037314706,-0.09339552444738,0.324197814501727,0.743684744332637,1.05738957449301,1.1594385835942,1.03192775645378,0.757441231974793,0.450654969383513,0.187655347841461,-0.00851110273703079,-0.144318893247613,-0.23448982634199,-0.289430407716575,-0.307390067973067,-0.283746731170942,-0.235573817543037,-0.209626656988708,-0.257118350521173,-0.398913478927726,-0.607073326563672,-0.808286100254102,-0.913630188318959,-0.868085059711406,-0.677395838975735,-0.380381582044296,-0.00652777898476908,0.418361205215095,0.83071440325418,1.12584472928098,1.21916128914386,1.10739615148262,0.858544468107602,0.549171787666655,0.228961695944612,-0.0621066291412453,-0.279089846383498,-0.396180805431429,-0.430963876334392,-0.425527236015611,-0.405609600120816,-0.369439170142784,-0.316906418198678,-0.279299945450699,-0.312192269380113,-0.455908109872327,-0.694414788200333,-0.941531506582429,-1.07500320004944,-1.01176098665699,-0.764603826998269,-0.414905879428731,-0.0273091655962291,0.386949182877087,0.812308283142837,1.16394000429064,1.31938583461416,1.22301243243688,0.940578545804718,0.600347677487802,0.29353855190241,0.0435824825762066,-0.149213789444283,-0.27275683656856,-0.319571397603475,-0.305985483127536,-0.256466961652636,-0.186266361027573,-0.113312682482187,-0.0741983360704307,-0.113595943052163,-0.253332485407463,-0.463083192536779,-0.65585722238856,-0.727963092687902,-0.624338937109822,-0.367145912969573,-0.0185434133020973,0.369843343605718,0.758935667756112,1.09239626885058,1.29635842387493,1.31988180683392,1.16877175945734,0.898919035973186,0.583820183641884,0.286912933585024,0.0500606034558381,-0.110057600168223,-0.204432300595872,-0.263812689776144,-0.311976332867797,-0.343076896593521,-0.338972262333522,-0.314209322821351,-0.327436992612955,-0.432468773665242,-0.61818160457102,-0.799323637999742,-0.867208472500182,-0.759850791659825,-0.495145222307287,-0.137910237787172,0.259102772726882,0.666497151244433,1.03767702393625,1.292595198494,1.36451996924077,1.25219320302454,1.0143757988502,0.724134416402112,0.437825220242886,0.192177502242886,0.00586481202370536,-0.1225982960474,-0.208130434572643,-0.26520014462878,-0.30422385706204,-0.339584996261385,-0.393100159340638,-0.488047776972206,-0.639585251153569,-0.837516640139014,-1.02519211805835,-1.10838420193211,-1.01224538243829,-0.737005747591839,-0.349084926751873,0.0762361855094877,0.485806421602348,0.828476253830308,1.03735156344919,1.05844950226504,0.895559243946388,0.614417943106429,0.301496001230981,0.0226085821268166,-0.188528003149835,-0.323728287672012,-0.394705213826944,-0.426480568375552,-0.442863310567772,-0.452353376790455,-0.451737202086758,-0.451601892417247,-0.496757189305858,-0.638540026878708,-0.86358614570048,-1.06222777552312,-1.10369171547906,-0.951509774980318,-0.67917989114665,-0.365345179820829,-0.0111465178493863,0.407528686078265,0.833319558462619,1.12887296631252,1.19755981185747,1.06817853033236,0.84631751486831,0.615866099391544,0.40971055731637,0.241873647128608,0.122277140787663,0.0422046871885023,-0.0212865489408543,-0.0763752755523032,-0.109541219700549,-0.114899471568943,-0.118499913361616,-0.168135726162498,-0.302186320697383,-0.515860310127909,-0.739627757944151,-0.862596992319854,-0.807917623278228,-0.589366130615094,-0.277209105950946,0.082412085267301,0.484058169602175,0.899149213359368,1.23173534921919,1.36587780444461,1.25621985644799,0.964904418797023,0.613206436440945,0.300123253506398,0.0598737292357225,-0.115949269418799,-0.231788942734761,-0.278399681300691,-0.264465812931583,-0.229323181535455,-0.206258711839389,-0.191432056664394,-0.173949372156857,-0.187657277984077,-0.300784341010955,-0.537190696993638,-0.817893790104757,-1.00031573962868,-0.986744464244278,-0.792007330255945,-0.49994058568229,-0.165917395194624,0.211105594178062,0.615992997592491,0.954763742691508,1.10508688367644,1.02762781395814,0.799865839790269,0.536453243795902,0.300713558916863,0.10198669363839,-0.0512674420470157,-0.132320161917054,-0.130587452612694,-0.0774189720053016,-0.0207602360322866,0.0184480801309955,0.0548533197940139,0.104850530854368,0.147601093309792,0.123205015554643,-0.0219476602772395,-0.278978013885284,-0.562456947691317,-0.757275040875603,-0.791776573705461,-0.675607132104045,-0.46831611836001,-0.214481360926098,0.079894612690664,0.405519236233191,0.70218460156746,0.87355872714732,0.855542661432389,0.66609489401294,0.388403206638989,0.110753667417587,-0.119800612642842,-0.298342367929918,-0.430674685146435,-0.508845794798684,-0.519845888043062,-0.469674322067574,-0.384910464536692,-0.291045847033909,-0.203739579964215,-0.145151615054063,-0.153289739505372,-0.257355362939265,-0.435789705558359,-0.602011487912229,-0.648646288615421,-0.52524255141911,-0.271900974321595,0.0353496857930405,0.361499383980334,0.709484929392239,1.04673493322036,1.27618307265673,1.30492904779876,1.12764090192983,0.827902804896098,0.508886590181302,0.233453703693852,0.0180228266710618,-0.13834584167618,-0.231147259955175,-0.256905617559212,-0.233228144536544,-0.197059932501904,-0.176942525919827,-0.178679054588257,-0.20906631548581,-0.30121132697814,-0.489474310450058,-0.748984887777542,-0.977839147608581,-1.06149544841719,-0.95601067444656,-0.699253311124224,-0.351343427767649,0.0507450529251424,0.476896539420001,0.867824874903729,1.13703897725365,1.21411558648209,1.09011995623029,0.826821860362879,0.521219281225355,0.25367436732525,0.058377315374154,-0.0719184391146091,-0.162952209652612,-0.235831120951367,-0.293931383257019,-0.327011678355934,-0.330498060196765,-0.323008144858192,-0.345068087573917,-0.436971144097103,-0.604835274020284,-0.793853569480976,-0.901307837677027,-0.842394568530989,-0.615969302710645,-0.292373418623633,0.0670217301787702,0.452789808059449,0.855620786108606,1.20000926092959,1.36848813208862,1.29674093740286,1.02786543746112,0.673086516756624,0.334209470080516,0.0608157256651261,-0.141771941243301,-0.280197500001633,-0.351650204638874,-0.354954754585915,-0.313921321708352,-0.270040595358482,-0.252541769573145,-0.278255991888142,-0.375366381393302,-0.564297467744187,-0.798838513158049,-0.962384254783535,-0.952556267847413,-0.757157109989635,-0.434644169810235,-0.0448595142597966,0.372239271973271,0.76354562433631,1.05254257271391,1.18201596480785,1.14857006485449,0.98316908071284,0.72120000883108,0.409435561670253,0.116066223444021,-0.101658949663599,-0.239618862457134,-0.338539939843047,-0.431469969492686,-0.50930638913638,-0.541334165668197,-0.5231062210043,-0.497296570773631,-0.527511882563121,-0.65101429474913,-0.844958843709117,-1.02651765283214,-1.0940865350272,-0.989729248701401,-0.732075749065936,-0.387833115815717,-0.015587544619283,0.355719443884154,0.699397425281053,0.96100143531386,1.07165802033989,0.997650435656947,0.776241807016017,0.498181557641485,0.249018836522958,0.0616140476084814,-0.08035604824909,-0.199928029329248,-0.293446671403622,-0.33717364612239,-0.317574888613437,-0.249466409400534,-0.171712513196239,-0.13395274230199,-0.178833166061038,-0.316416651065724,-0.505592422444182,-0.665974399937465,-0.718091503839188,-0.621093209404392,-0.379972985735618,-0.0257147101135548,0.400199988865099,0.839038935622059,1.21094227413298,1.4414871958216,1.49629021626893,1.38575073104889,1.15007478757197,0.85441419511907,0.580797623824522,0.391728848084495,0.294123721546644,0.251146348172913,0.229174604687039,0.224157603782599,0.247613843251869,0.299327968127477,0.351580064015025,0.351590096353454,0.246136927040193,0.0216210541641099,-0.271397540117331,-0.537314697385642,-0.684695096683915,-0.664460572508034,-0.478451994540902,-0.169689812545533,0.196721454373492,0.555875895624846,0.850426687895786,1.02149096107319,1.0149545524487,0.817185297439644,0.482246942890853,0.110358863049564,-0.209549216561598,-0.441646879800014,-0.59637115441765,-0.694166457860743,-0.74301348477656,-0.743020014544429,-0.698086601161276,-0.620784268589065,-0.53287319456931,-0.463150005080815,-0.442597180252843,-0.496430800997106,-0.625132506481683,-0.77658343980523,-0.846236823434666,-0.739057130343745,-0.449690894654536,-0.0655936064094399,0.319580672041363,0.673566639579637,0.993880918711018,1.23963557163162,1.33024082046438,1.21211447455878,0.915454036897946,0.547167177116823,0.224907237357422,0.00327562484610503,-0.14212593272916,-0.261210009936024,-0.372416016373003,-0.459259857569058,-0.501866753466789,-0.50217389197456,-0.495064619334813,-0.543988025204831,-0.706367729403325,-0.980964301580727,-1.2889719345171,-1.5198180985735,-1.60226952566577,-1.53169261341708,-1.33726751826164,-1.04157189731585,-0.663407890294626,-0.250736196811171,0.109936686376346,0.329240800668476,0.361854832976811,0.224696813159974,-0.0175462412869993,-0.283549988828786,-0.51151497080456,-0.682674756917707,-0.808871690813141,-0.895579532939308,-0.93018513010225,-0.910581037815229,-0.862537257062327,-0.815032024222145,-0.781463903179988,-0.782289519222289,-0.855965854780757,-1.01085444099637,-1.17670165452454,-1.23725045890447,-1.11774058018459,-0.827506665548305,-0.421520362005785,0.0542598958378998,0.566099438374095,1.05978639271074,1.4530954503753,1.67216712631979,1.69704313256576,1.577494826124,1.40515648127503,1.26127972454698,1.18493133066574,1.18364962694063,1.25652678017405,1.39777108593153,1.59197016590076,1.81948200238518,2.05865093812507,2.27236415842557,2.40196441061783,2.39529621778424,2.25918881888588,2.07954708380257,1.95857007793188,1.92978545691803,1.9484637411193,1.96233456325444,2.00803396112952,2.1725518704063,2.37928526232524,2.38562259723438
