-2.13012271971073,1.54784149071463,3.62312849944615,2.38893119703262,0.115888172100786,-0.779849753249115,-0.338667511960355,0.288553019982173,0.489999212143095,0.309521945299542,-0.0318767342432962,-0.401642654569642,-0.747498851698728,-1.01610641391659,-1.17302027850602,-1.28784865537066,-1.49396860235881,-1.80442186592919,-1.93111303529951,-1.61208004451803,-1.12920887272383,0.0371418705746931,3.39658033250153,6.22900181447888,2.52393026719342,-5.20592180701305,-7.13796854773424,-1.9964106687642,2.86813247626798,4.2369234028587,3.99412193791103,3.28998495584157,2.11128567951636,0.662214189353594,-0.621641795192363,-1.31444479050248,-1.39668112037177,-1.37879966798525,-1.72313664085389,-2.23970079379176,-2.23546173716204,-1.31980570519219,0.0402467784339829,0.883075391128777,0.657512464385875,-0.263658410809402,-0.954101567741543,-0.784128201941104,0.112387298026345,1.14725307353603,1.89292270861167,2.2956768510678,2.40600899533142,2.15278915369354,1.49783543930901,0.686991701015226,0.147471525391444,0.0591520442715941,0.104514751103171,-0.233567580746148,-1.09550543343374,-2.05349863604918,-2.55157730806124,-2.43878033396626,-1.94426045223598,-1.21585505396405,-0.152386321381086,1.19131143091975,2.25456137296026,2.33839050418241,1.37775890197352,0.155342703772022,-0.386201785989826,0.0188615638430087,0.869962239551975,1.53041113766938,1.79248238614327,1.84565323900161,1.85516477391732,1.6853664730141,1.04011108760176,-0.167718174449347,-1.63519626153498,-2.87647187413726,-3.5783194313622,-3.74039431548765,-3.51657209721677,-3.00714051912418,-2.25683177379846,-1.31906022974253,-0.173762708516241,1.31450137324873,3.14349033458932,4.7245134525728,5.16940514937596,4.26582350449039,1.42888308449538,-4.40910362068092,-9.01256047146981,-4.47348064456034,6.30576961560678,10.8332922228966,6.36723176779555,0.94605212294789,-1.46367566437708,-2.58792283925117,-3.40600789530792,-3.77322125271394,-3.83800170515525,-3.7491375006638,-3.50734064665592,-3.05588264056523,-2.28894136049235,-1.11472334827413,0.412166974343402,1.93766171876309,2.90183174057552,2.96626004585651,2.31702720727188,1.59382713617683,1.48266330761882,1.61011554796007,0.502885687952799,-1.23302687968679,-0.313743478368042,3.34726630801509,5.2618080180029,3.3934990039167,0.316909976204238,-1.6948200408692,-2.5093385837559,-2.59627471645987,-2.51182083432627,-2.74926187790144,-3.32161558425518,-3.75292328659699,-3.36780737606318,-1.77759229424481,0.56252064448309,2.39237757337624,2.62352975268987,1.38336176077467,-0.135768314967948,-0.885061477513096,-0.733572381312502,-0.0758270882387259,0.835477774986858,1.89782196007749,2.8276120579151,3.2301761972332,2.96967350315201,2.21431390942802,1.12771400643643,-0.208965098748028,-1.50615400651839,-2.22385581894279,-2.07670725235792,-1.41620041303401,-0.883498913975517,-0.785463427105571,-0.927160266064219,-0.907712700195148,-0.486030325696905,0.174556852493749,0.476819616044515,-0.166287722659849,-1.63221803675757,-3.03455727304753,-3.35340611385578,-2.33165024705607,-0.758764437604645,2.16670703458057,8.61745401408618,13.2132870453358,5.83162675158624,-8.12549371644854,-11.5927368259055,-3.32281681824358,3.67699684120205,4.4429964450044,2.71215799596948,0.782168900446745,-0.872316215864566,-1.75299419469091,-1.92842218997691,-1.87534250946793,-1.84883528183127,-1.69908043891988,-1.1288333666365,-0.210579075489648,0.488997966107768,0.466229979102595,-0.104138588893558,-0.506351556515505,-0.278298668969974,0.343979058177916,0.842234080472289,1.04741829511618,1.21333287772996,1.57866070847717,2.01065007023365,2.0905831835001,1.50151517190847,0.346293072469277,-0.88681148176847,-1.6972866276684,-1.94681380307359,-1.88023004018758,-1.81550599957346,-1.83375958184181,-1.71149690201058,-1.11063878829396,0.0733171713732972,1.42933695263555,2.16189958048516,1.72670388246808,0.43140740111284,-0.721537304164108,-0.8910604035835,-0.0653871552160738,1.08159857346949,1.85312459059731,2.03689977055086,1.89238142285275,1.72920248700651,1.53921901626861,1.08717729439441,0.303939651774458,-0.563234220309903,-1.21743807448714,-1.59921357005464,-1.85224521252121,-2.0866768168682,-2.21134212950964,-1.94327578893899,-1.0264074281223,0.402554837634113,1.66536765435728,1.98265777895971,1.20784071607272,0.0289986058078773,-0.649747287015073,-0.45943300982513,0.308379485907116,1.14237351284991,1.73583698990078,2.06009113571347,2.18608126083811,2.10051976899374,1.69141708967398,0.908261500130136,-0.0906256478550428,-1.00114245687186,-1.60313937604295,-1.91264015080025,-2.10948354103972,-2.3307878620753,-2.50239651704842,-2.32088358930685,-1.47703797717638,-0.0835891752041071,1.12527109579153,1.31483169592262,0.434089207586737,-0.634399245197095,-0.979777405296391,-0.528051084341833,0.148749322221754,0.637985714430116,1.0025755289037,1.39550654891161,1.69966259143795,1.67736382698375,1.29968665604581,0.75363579756981,0.183630838510527,-0.420842160627254,-1.08381653581202,-1.71337906590938,-2.15883472604574,-2.34297040832683,-2.2878313631199,-1.99338593067568,-1.33040734409032,-0.190321160771376,1.15510085163466,1.97003995257974,1.60719117002716,0.235308101144925,-1.19345311525206,-1.83100737493731,-1.64137038796719,-1.16415331754573,-0.743293888506483,-0.304971999429834,0.203601839956579,1.20722389720836,3.48973142944107,5.3694066300357,3.18334730287041,-2.02265539604259,-4.63315254272748,-3.19585896904441,-1.24945409394365,-0.701440423469619,-0.815701834482984,-0.864479635047597,-0.389952263566262,0.891929375281794,2.41497692122882,2.98153669816532,1.95321901121588,0.047395573968807,-1.28387388836385,-1.27968834269671,-0.428512528186286,0.365002264513918,0.797111372248503,1.18051208061277,1.73717672522367,2.24160279281253,2.33580696850122,1.91146738130657,1.11308551076815,0.162937140727518,-0.710385959495733,-1.31492450283807,-1.62586787645384,-1.83653657794598,-2.15259575343698,-2.48509744992076,-2.37990308912506,-1.35856053683649,0.50085079088141,2.29793430702646,2.88943466016045,1.98280317501707,0.541414110224654,-0.135498401627819,0.31167542811957,1.12838265602975,1.46121314592073,1.27382272151502,1.18088612891549,1.58503635501153,2.19020149938245,2.35495355719023,1.77222309711031,0.723735178210524,-0.278577253184727,-1.0039676026212,-1.59352211561776,-2.18902424786587,-2.6652985472963,-2.85930918581229,-2.88095045122651,-2.90252965766459,-2.68480666669034,-1.68737100337155,0.141244488348269,1.90890846129258,2.4553063157563,1.5210530957821,0.0356583139554258,-0.826078258406033,-0.708158547515455,-0.137638967169565,0.256765910514466,0.38669254602882,0.607969419765971,1.14239253672979,1.70577913463354,1.75397085269304,1.05838038709373,-0.0572307061210101,-1.0624723461385,-1.68801810682933,-1.98871092593249,-2.07739178049715,-1.98857845803434,-1.79701328755799,-1.66447815936323,-1.63760580851084,-1.48114099678274,-0.863498187019142,0.221524722814488,1.2580241043702,1.56434997955056,0.949446571176903,-0.0485534315362717,-0.677648425278095,-0.652144955777815,-0.223638898652057,0.284353126194343,0.793556313586141,1.34952452686457,1.87813625568162,2.14353131426616,1.91921722978294,1.21685043721214,0.352544113375744,-0.298644926213681,-0.653121019509535,-0.942468423309166,-1.37002597181969,-1.85928959104756,-2.1686469503904,-2.1040608341473,-1.54815493904077,-0.465298592954852,0.909548829185641,1.96181269294876,2.05974246898132,1.15618827179354,-0.0940443578016355,-0.917095503288425,-1.03260156801127,-0.623539773069565,0.123354946893655,1.1832944897904,2.39442135288234,3.27422254610694,3.35215107836473,2.61794230374301,1.50525371666132,0.478110682889161,-0.269404441064949,-0.776835528276029,-1.14289394682979,-1.42984753443661,-1.65793297473849,-1.80101127356573,-1.744108107925,-1.28252456747838,-0.307540427912008,0.873862642085946,1.50818620057612,0.988854953624948,-0.391828754303953,-1.51193025265733,-1.46794461344546,-0.444700342029941,0.638678538677917,1.19541956016043,1.41421862739441,1.72158280313857,2.12805055834515,2.23138531286186,1.7345237349021,0.81256116711926,-0.0737414618157239,-0.653839023652409,-1.02381506189421,-1.37132166510738,-1.69310294263006,-1.85224297725863,-1.77223466107371,-1.45247576929394,-0.887475525689757,-0.134657447583941,0.551209720479425,0.806632231179988,0.466381852683133,-0.240407707625766,-0.81716174090689,-0.842558460184477,-0.27526699788282,0.513327709386092,1.05676058076286,1.20971435547621,1.21477419606294,1.31235800631749,1.37545164957337,1.06653226901412,0.318947472781525,-0.511927819559024,-1.02439383895511,-1.17558840240485,-1.25220463892011,-1.51898505810984,-1.95346503238513,-2.27462134480976,-2.16357233040736,-1.4748236566115,-0.347995374624704,0.779079142545613,1.3322689406713,0.995617135066232,0.0578085993543857,-0.743382151726936,-0.841051265441563,-0.290628419798521,0.402702261823982,0.819281249849904,0.941617521773971,1.01716544749518,1.21346817859737,1.43726732719777,1.44777768964919,1.09153485033468,0.419261001431682,-0.361687854222779,-0.982611839472666,-1.2189142927261,-1.0508594649825,-0.761811966724783,-0.758558079164583,-1.18795961365261,-1.73071250448748,-1.81059283325729,-1.06946410173985,0.245229703064348,1.30871048892004,1.29000531620047,0.120929879160981,-1.3023354557226,-1.86309041567985,-1.23268879726106,-0.0836359527106797,0.651703303294288,0.631053954159689,0.263349763301957,0.177012654605313,0.606584718232166,1.26347867145516,1.69266043224873,1.66792216445925,1.30066189322992,0.897034157098453,0.707344174140135,0.699318280640682,0.559915491879376,0.0216747733787486,-0.771469195060745,-1.30305616693468,-1.1749190181339,-0.528230153241833,0.155366839771736,0.662190560360097,1.17101068642303,1.62336822335258,1.37968488665916,-0.0322719435765221,-2.04081526532181,-3.38666720678633,-3.2807707594685,-1.89840338630546,0.0504278728082075,1.81041105481437,2.8018673803561,2.88773342401105,2.54673471741181,2.44879754910477,2.65392449439519,2.4127374629934,1.01434862077299,-1.18294057940229,-2.80347840002005,-2.70110176473629,-1.0951820832036,0.648818296309782,1.30092165607616,0.715386986591502,-0.32279427617195,-0.879153888626847,-0.540379261168521,0.319293076016367,0.797547014777285,0.240689446458924,-1.03354113199851,-1.91137187620676,-1.56215682715101,-0.259026476945375,1.0408059470553,1.75971528621406,1.99546770150581,1.88395615513894,1.26638937629355,0.202656598051532,-0.693263094305838,-0.856688598710705,-0.46789037033131,-0.20512916338398,-0.474262449714085,-1.15275633326793,-1.91068130770315,-2.47307594647626,-2.64911047057229,-2.35799755982013,-1.63880670437106,-0.568536130994421,0.707045241060697,1.78359253257844,2.06895253573124,1.31894457345102,0.0594540607173851,-0.76906756433694,-0.668154757551855,0.028878786384438,0.637505649988022,0.823314492055437,0.745392601098221,0.678093995950448,0.685279582344363,0.635124534253906,0.385271828314788,-0.0909744322248646,-0.686066761982694,-1.20291539951489,-1.45456005603561,-1.41002540221444,-1.26454628478474,-1.28180755334822,-1.48414890206821,-1.52908875044077,-1.00947702942236,0.0529411785612801,1.07075305792831,1.360222285056,0.787702412923858,-0.0896700145492571,-0.543977966067907,-0.309388221346979,0.283405959828565,0.710150998284829,0.744320724607967,0.612877254630102,0.716445547270033,1.1677117149098,1.62030244094392,1.6209008431878,1.09063421646242,0.352197111247379,-0.264447944707532,-0.67313993611778,-0.902683449610027,-0.942632517565232,-0.834662315977145,-0.750160351468464,-0.771358889080612,-0.664715358806415,-0.119349027457862,0.741474103586889,1.31602452904972,1.14066120443466,0.408021706073007,-0.276289346713543,-0.520508926260896,-0.369509425229028,-0.0505632837057563,0.260282346277153,0.463935758994642,0.547754898499101,0.615022788388535,0.790213020044333,1.03800009160093,1.12802215719283,0.850142141296731,0.266923346411523,-0.319733798024284,-0.676483107132685,-0.828063330230847,-0.912410337939242,-0.975861440306269,-0.997482562055916,-0.998740479298856,-0.978825754873888,-0.778845564548183,-0.186513190229191,0.721085057390231,1.42538888716963,1.34197142731572,0.426193306552569,-0.687068112382738,-1.22704374699318,-0.932548719113087,-0.160534026996314,0.523798651159852,0.802335016362253,0.736787451030067,0.553507556340571,0.366383876743398,0.160124344047202,-0.0180632436705439,-0.0228809726895741,0.165330589848597,0.297379095968873,0.0617348804682941,-0.560201130949192,-1.20659313668382,-1.44514763228181,-1.17851998648693,-0.732570067065804,-0.525352205487988,-0.635441749403275,-0.713924937200639,-0.362457885966473,0.393227376148043,1.04856991098666,1.08313807665774,0.47634871478388,-0.272784246747038,-0.628700058420233,-0.454309752612781,0.0214901262618248,0.515576424856359,0.873182824134966,1.04419393790389,1.02393078078929,0.845799996678949,0.595889360053796,0.383569710466783,0.236972236914088,0.0498463592331721,-0.265985221534792,-0.585145035389826,-0.66024912084001,-0.436655652281565,-0.170723838087341,-0.198945040866688,-0.617830013811676,-1.14035274830648,-1.23880779152968,-0.576144693860702,0.555696409320356,1.31849697595991,1.06247562539767,0.0321000233716758,-0.782414171022979,-0.582711066162319,0.475642874307918,1.47925205259717,1.66697818408498,1.10553365609586,0.500968532339932,0.439484071015169,0.875383450478895,1.30259961313205,1.29460927865991,0.833708280415339,0.206946110154728,-0.303113608248118,-0.593259236507536,-0.691382431477545,-0.672925190746262,-0.656130129070752,-0.730522555514195,-0.776569095169702,-0.494368864345106,0.197652277258298,0.878688223954877,0.976810512198739,0.409768166376027,-0.31512070639442,-0.653080524177036,-0.489925294327481,-0.0471064871785286,0.443009945878797,0.839386159427251,1.03230987392285,0.969583668641639,0.725428675769451,0.434917643016959,0.140253265434484,-0.240662398160296,-0.759052377209198,-1.28529721192776,-1.59099059359966,-1.60686771166435,-1.52588538489197,-1.57397663386262,-1.7081453665504,-1.62155778175908,-1.06963062927741,-0.170994568340007,0.624498889908682,0.888355003314465,0.577543415201451,0.0721698815934999,-0.157154689993151,0.058984507487688,0.50246522031714,0.842299360498087,0.960794294724158,0.985981138693471,1.04326811354266,1.05081901018574,0.790021414333989,0.149754694410935,-0.750407277306223,-1.64975537368623,-2.29109880507892,-2.54013996570886,-2.40765739964764,-2.07180698978344,-1.84395307289029,-1.24216961885551,0.914915955909704,3.02212764643923,1.03910997319657,-4.02212335785084,-6.02715336570431,-3.26165010883726,0.425482749388217,2.60469701372318,3.47884408654235,3.39916619070628,2.80168162583736,2.29304221093386,1.95080076514183,1.42819604024647,0.590830110138396,-0.242159057285021,-0.602079794479256,-0.287054950503372,0.50084970013415,1.26841019362391,1.49033972421775,0.969314512514683,0.0246295223143243,-0.776048219886288,-1.12243227932812,-1.13823825293179,-1.09677618126218,-1.14355998499172,-1.30664469806209,-1.53093564479049,-1.57232502740931,-1.05235440516028,0.147366468315067,1.56596294336139,2.44747382361961,2.45884676664993,1.98858956709379,1.58630294274889,1.30273909997932,0.890439773159177,0.481279938168176,0.551284899187731,1.15231317418172,1.65060552728326,1.46101206195901,0.744437404509325,0.126411191680042,-0.0935635111788297,-0.186108038001739,-0.515292055992431,-1.07609574843697,-1.56839167060901,-1.76879494347776,-1.71283184259535,-1.53972639588968,-1.23852765558633,-0.642295454207783,0.257475559648435,1.07258193859623,1.2849479813349,0.800869561501291,0.0933170327023963,-0.281540858631069,-0.18640920150734,0.146425186211225,0.497053653154592,0.802851764719078,0.992896212887672,0.918070163904276,0.540745107461157,0.0546660192671511,-0.314320479493054,-0.559329555042244,-0.832543243038882,-1.18802322236484,-1.5032644833321,-1.64054642976254,-1.59117686688742,-1.44294681026725,-1.24298111381237,-0.918495029546458,-0.379079930559886,0.271652407902717,0.709360214544638,0.680949885655318,0.282851729560681,-0.151301873118933,-0.39184720341965,-0.42625648720607,-0.285114953502644,0.0616124633705319,0.579365294409395,1.07230614468983,1.31421919703408,1.22104037890907,0.84238739132997,0.271287914929747,-0.355599122707759,-0.83797009346836,-1.00461923851789,-0.858731760340815,-0.609938122350665,-0.513867474246957,-0.623199656453655,-0.703798898667117,-0.462470223925435,0.112275860600471,0.664109827860819,0.765554932470256,0.333812429097043,-0.256504289997368,-0.516090743027517,-0.294020724423794,0.150255282398436,0.49140965562829,0.651628517493393,0.753888338131719,0.8732634808573,0.924342582411064,0.768686350406353,0.378135603134922,-0.104678042367147,-0.454388842847245,-0.534855250400795,-0.400745306878195,-0.228665383431959,-0.164380262559823,-0.236412351796916,-0.362503605605443,-0.393607818739026,-0.189936385705992,0.253711474368511,0.715133807045717,0.847864454102804,0.489302093840032,-0.123312481088138,-0.52591227770835,-0.442751543614336,0.00726582907619362,0.490182039254038,0.762014766532764,0.797943231157328,0.713018856891447,0.616695743467594,0.519248843155002,0.339724724409631,0.0134733826512271,-0.39215937559564,-0.700057205078393,-0.797253084721004,-0.757082717378379,-0.725661810409405,-0.694202522532034,-0.474481684859957,0.0363999213932375,0.614392246043128,0.832234686411295,0.471652835804394,-0.214174930342303,-0.688297452847732,-0.594240407865472,-0.0469004543724167,0.509038553140743,0.714488646885242,0.587856276648525,0.427100906403807,0.447284883271761,0.560381328133663,0.523355234688835,0.228522123092842,-0.208581858045185,-0.583297075019681,-0.754943206155098,-0.731521849272601,-0.675715157537234,-0.759336385228255,-0.936492428302537,-0.934654217825387,-0.560124272447692,0.0360934266013422,0.469312148924295,0.47129657263852,0.0974659160775145,-0.363366777188701,-0.616146692185659,-0.504099668412817,-0.0378980058880155,0.592635469219737,1.06384746577594,1.14135509355117,0.910542609503675,0.674369052423559,0.596295383011449,0.549885422594643,0.33274819520908,-0.0757894702317014,-0.494895744625465,-0.714873969812839,-0.679472757052592,-0.539385510546815,-0.528726459000839,-0.755643181789118,-1.08581729837378,-1.21159288076591,-0.865962772768718,-0.0796981682952212,0.715846912998165,0.968241650258641,0.531917384409597,-0.138023429263586,-0.435399552485442,-0.187326150782583,0.300132838832662,0.664208776894146,0.796540063247521,0.799450849712716,0.802378688507266,0.847178161057789,0.86873430826763,0.747763807683474,0.409070732373353,-0.0940366286829789,-0.582762397366789,-0.870914532827313,-0.910432182067461,-0.813862767695565,-0.729934706171863,-0.713011547290093,-0.699803188489049,-0.578433139692593,-0.283341009827278,0.157094676094352,0.658887641714639,1.12675478424737,1.4064996275278,1.24961831830482,0.496541147648885,-0.600034798737556,-1.34692662906079,-1.13934623278503,-0.09949663163353,0.960109749108641,1.31307787404287,0.959459513764865,0.435654968878573,0.141052541729871,0.000341800546342704,-0.263754047089842,-0.688839579673773,-1.00333202881386,-0.960738427693374,-0.623280869601317,-0.261715715601787,-0.0634953952745707,-0.0328554855573608,-0.118522715269434,-0.28502083075853,-0.41064564826344,-0.257930197305242,0.281729415438288,0.92220615375626,1.13031622819854,0.652087027895941,-0.166961159389261,-0.689286724258333,-0.593948270608769,-0.104207248601902,0.335276798630701,0.474423106349944,0.374252635564821,0.26056778096665,0.300216067585115,0.444566874183193,0.481508596277497,0.276054120431671,-0.0792638084482307,-0.395649315738765,-0.609263116502633,-0.791192106048087,-0.964446378291814,-1.02041954457583,-0.867193559306336,-0.574634790581327,-0.268635298321213,0.0561583956503947,0.453871146476008,0.769752014802812,0.687853681962825,0.151220254048251,-0.42477063247569,-0.53138551162706,-0.104449555497547,0.442955150189273,0.695695155966895,0.63043985125225,0.529363935174948,0.603792996633692,0.771415076366811,0.781195728382159,0.505729988722096,0.082614172873483,-0.241342472631691,-0.381698499710604,-0.476049869812696,-0.669688430255567,-0.92487389059512,-1.07766309875358,-0.993515138114175,-0.617591785861921,0.00327753716517307,0.631129474995983,0.882447012064815,0.559645692504282,-0.074238407632042,-0.50597438444769,-0.475596881044016,-0.169253023825282,0.0848822041058018,0.197621608418464,0.341507958238418,0.647341530908696,0.971985634650098,1.03366716179369,0.755806838405997,0.377320756364487,0.166158100517301,0.0942038151828195,-0.0926401037669523,-0.486020318209617,-0.83481772935011,-0.849326868067118,-0.593912424872528,-0.418369340757271,-0.505176826505296,-0.629579830932476,-0.429493738952914,0.151513292309232,0.737913750764033,0.836732976533276,0.303739562823012,-0.471811699850116,-0.870845778925855,-0.580879914274964,0.141781126326827,0.727044388990085,0.809034069496008,0.519967853664335,0.290431269143535,0.373623732739289,0.607367997541272,0.651010047014549,0.378019321541214,-0.0223581909071539,-0.277064711935226,-0.289131034736414,-0.18111737930543,-0.140778872690749,-0.251674052407844,-0.457436279795915,-0.650129337802363,-0.759330135056632,-0.757315896985254,-0.616747194985804,-0.31114449054068,0.118766244452006,0.513273435123312,0.654801259577044,0.435661317344015,-0.0122550459362196,-0.384201301753585,-0.447552071153366,-0.24049707871554,-0.00518534313937458,0.104293869726744,0.215412307396435,0.551360557151868,1.04201219005469,1.26138001120214,0.870875222249569,0.0510846880052947,-0.631770925622103,-0.763765212568085,-0.414095239217607,0.0134860870773794,0.161752998117404,-0.0197396803715806,-0.305166484348776,-0.460217623826368,-0.487875123126786,-0.580479970553149,-0.825939194852455,-1.03682098798841,-0.92874081941947,-0.420173910440616,0.294463600622404,0.894382220923328,1.09051976179288,0.765828152712619,0.115786817342298,-0.421349681364061,-0.524780550296072,-0.256270195341707,0.102727968154446,0.382405881146559,0.593361917498189,0.761250465599758,0.836541920169402,0.759763292585738,0.532706071578535,0.212408727497451,-0.126349462247202,-0.411708617162251,-0.587651208660183,-0.636694414524637,-0.589280077285029,-0.50450383321764,-0.458211982117943,-0.528205957841127,-0.69573836879994,-0.738582100524807,-0.376402719548624,0.349179314215169,0.954844213531787,0.958393054041431,0.406884597708742,-0.184433803515449,-0.391144934620671,-0.225184152496401,0.0595062294213197,0.307710885812183,0.525662437866747,0.735725779338354,0.89144796886006,0.91532792557371,0.771585011398217,0.501743614812053,0.188846852896036,-0.10934114943296,-0.367219088231207,-0.547054205850871,-0.606816924447616,-0.575707499610272,-0.587278149726208,-0.770956722521578,-1.0492463367534,-1.07882024250295,-0.54427647805512,0.408901863573433,1.15202844177818,1.13018750486432,0.421807998574639,-0.351656059991179,-0.644473374600859,-0.40869711362532,0.0589226246260258,0.488219685814387,0.766251610334418,0.863917900845187,0.815284559695517,0.730569395501696,0.689262325868893,0.617097530591047,0.367035196708357,-0.0740401709120667,-0.537389924185715,-0.828825953271537,-0.883847357429959,-0.804858750448007,-0.781530704672223,-0.893181484044629,-0.948891313212834,-0.645954005957367,0.0311868740779241,0.674245822693201,0.815519987612492,0.388271843179477,-0.226685252162484,-0.565874183344777,-0.449087397499861,-0.0384098302529714,0.368649911221161,0.583328010711835,0.631877067391823,0.673076181557304,0.795674896442522,0.886299366487861,0.738545106977508,0.314871719077184,-0.155501566398359,-0.404286826016673,-0.419393799929157,-0.423795747246298,-0.571244860894587,-0.787889001740814,-0.938861402488846,-0.994139012634412,-0.940086511274558,-0.669702493260557,-0.126610025510538,0.478860822081565,0.751612234674378,0.485855827597593,-0.0856908670092749,-0.487297911883202,-0.444267739349175,-0.0745363945559473,0.336152722014144,0.615273436931408,0.733667147790934,0.723731402173507,0.666620577965372,0.645186240581673,0.624648650009541,0.466016467372772,0.113492159622278,-0.295804984407716,-0.543694468169811,-0.530656647774697,-0.373965586606402,-0.314185495599597,-0.488236612618883,-0.789569314792148,-0.984018741604891,-0.936014849868257,-0.661364267379641,-0.212704309907709,0.338479108836202,0.786809860046676,0.837095350600996,0.404119087621619,-0.200030332919415,-0.508117857594457,-0.327039327103412,0.135037527134643,0.535317023569757,0.704456178409557,0.700744916021747,0.65917522214718,0.642429378041363,0.610967050940116,0.495195303491919,0.273475503838722,-0.018747109777414,-0.314207773700967,-0.522266490625158,-0.568784309234069,-0.481771574288415,-0.398626182178834,-0.443630583315113,-0.618695566421372,-0.806663342070727,-0.82183122978821,-0.494695058758228,0.144872771993623,0.744186390889775,0.863289378263577,0.44001691145111,-0.0996132358564913,-0.29442011238311,-0.105046345164028,0.170147377347211,0.309053796680115,0.351830932924803,0.435400175100665,0.592232764709867,0.742531357787115,0.799238636612175,0.713575661763516,0.452950969059416,0.0319645366998783,-0.413526448800219,-0.686149621313766,-0.729459917513573,-0.693861375652532,-0.731847531990598,-0.807649234032719,-0.779634723091594,-0.573925628962154,-0.197589393548919,0.293504624813036,0.717293239649373,0.781486021755211,0.365082924993617,-0.251230790862347,-0.586675791326996,-0.402736716881881,0.121596343903294,0.607415943291527,0.790556640373839,0.682359323374559,0.524343107853928,0.564150008353394,0.793351358368206,0.908851800986134,0.604386487179546,-0.0781768736109894,-0.73682351937731,-0.981204848187343,-0.79487948209737,-0.51311655752988,-0.469966914403235,-0.68666447027718,-0.884705329149578,-0.774245405790019,-0.323169192827743,0.230044810170348,0.57796667846055,0.546826022262798,0.179184696353073,-0.283252477720279,-0.511095967455781,-0.30976236034986,0.193356363280771,0.650513105354842,0.836048755608812,0.815065412805738,0.747272777793419,0.663190499436607,0.517849154245918,0.342036274412667,0.213801142794357,0.119545214120916,-0.0678050430243237,-0.44389760480625,-0.90712817243925,-1.17921325680613,-1.0769929968749,-0.755072845258605,-0.543435872659731,-0.516210337901385,-0.396852757172353,0.0088457881643605,0.452297295638987,0.501601030480359,0.0929433444207599,-0.368849082660213,-0.472022686698984,-0.204629421307813,0.14305273332886,0.344415489556089,0.413507137140724,0.48924794418567,0.638861403436032,0.782323948833313,0.776147742431932,0.557023116512174,0.211756135253785,-0.0849275122705581,-0.217344195906268,-0.234373827310392,-0.288346728247044,-0.446705209616042,-0.604932853437224,-0.6304274933857,-0.552565826581803,-0.533492570023256,-0.635223679700484,-0.674943480056244,-0.392232121286187,0.209966585793151,0.755436456344608,0.818998933738939,0.364913357391428,-0.209557294126092,-0.47279535976943,-0.324996147147664,0.030349439208998,0.357588853330042,0.558044008120328,0.640750907700169,0.638229196498636,0.585156304446053,0.524239942701258,0.466630217744939,0.360827161235285,0.163989975786325,-0.0735231153220169,-0.271427001732237,-0.437803111348345,-0.619101544863222,-0.759924552151572,-0.748068737228482,-0.599742769445115,-0.458007447859531,-0.367598539244608,-0.179926477659143,0.222963457919732,0.678156357562715,0.840358442960393,0.554323900214774,0.0433908019525301,-0.329403674929017,-0.414530978548008,-0.30105872583098,-0.0722028796408717,0.277327360426173,0.67065618267812,0.900121512394028,0.856168557790204,0.665326110991383,0.488590809107183,0.304800010247638,0.0163173423582649,-0.334106051461788,-0.588137082718436,-0.662239832245405,-0.611415662876292,-0.532843753085325,-0.492450755753107,-0.532519008868037,-0.637061833559013,-0.642466690551017,-0.318598773061077,0.313256792478381,0.828958865243682,0.766924377949962,0.151994557644301,-0.485081496376385,-0.630997088023169,-0.247472287429873,0.286521405707181,0.59188769449207,0.60315721260411,0.522967940106196,0.557514654680142,0.717236650167687,0.811260006935744,0.617930900123032,0.128480994726983,-0.376620800813012,-0.580960757028364,-0.464719723940883,-0.304838973269633,-0.353645722259268,-0.597843102071991,-0.827949953734213,-0.859792752651825,-0.656589050761757,-0.290909682987281,0.131262778883799,0.477920497164333,0.591881848695199,0.396984771009135,0.0262377080248214,-0.235595883350112,-0.190545147753538,0.107492844223719,0.43070575200074,0.59209451595601,0.577582656234311,0.502167574981495,0.482087987102765,0.55207546090098,0.647569626723229,0.627769940469202,0.369764605121677,-0.0883983178350408,-0.514089026001339,-0.663014924964319,-0.528857315944588,-0.369972913125052,-0.438344946082532,-0.707225493019787,-0.926444585128195,-0.906623776807311,-0.641055825852862,-0.188038048371279,0.368198101865225,0.789886781139107,0.740304954418697,0.146879948970872,-0.582256356737539,-0.869069334067332,-0.497346630616911,0.219777774140961,0.757133594544494,0.810901456828394,0.494421126271189,0.204626225693446,0.258644835159567,0.57749962807276,0.761149319968143,0.538608122612936,0.0668191454735544,-0.311659092006079,-0.498155946370235,-0.643165999668546,-0.790156745580158,-0.780255849669856,-0.580043392469117,-0.457417836904778,-0.635716023173986,-0.904664968967168,-0.804847996544205,-0.196145384594551,0.517754258347173,0.779070068823235,0.419555908859334,-0.201837649829494,-0.558694670562333,-0.44117793474048,-0.090470650591844,0.141153543092901,0.202418335069896,0.335390725737313,0.689911409137956,1.07231360496559,1.134629876857,0.761224479212028,0.207920569399453,-0.152552120838389,-0.196431880171751,-0.126792917206164,-0.19529701898209,-0.415177221321714,-0.600459022630986,-0.641071642370256,-0.631441617327694,-0.673717935238348,-0.632486107425747,-0.251875525940347,0.418821656252541,0.885001878728071,0.693086401980252,-0.00505735033923323,-0.578073681478293,-0.588012658982318,-0.154114483490667,0.326505904013802,0.596960228787701,0.647702700024557,0.61086451544528,0.638068531067543,0.76772695827469,0.859609549561041,0.740236396719554,0.420148725410287,0.083256798234683,-0.133393658474732,-0.265085328693276,-0.42076528265065,-0.627043860928491,-0.797478452604308,-0.826504229089072,-0.676120986805335,-0.364860685168064,0.0707397555016403,0.523380219459416,0.751110402648019,0.523706562875762,-0.0729371425641138,-0.584757276910342,-0.585119672631034,-0.100083562207772,0.45478743862861,0.723940713865284,0.694706825282443,0.573666350350096,0.528149528025805,0.577717233689894,0.631846306085822,0.568421983437225,0.308562743263956,-0.131635868158039,-0.621191638296427,-0.945119245933894,-0.943817159595146,-0.702993492858609,-0.531251613364178,-0.619201300193038,-0.753484290488924,-0.520450436016644,0.16209914278502,0.824500016692641,0.868543978685797,0.21491982858773,-0.561802901112886,-0.8042217547293,-0.4137737776173,0.156906960490437,0.471521232353854,0.507488627003521,0.495929374932901,0.560722421392426,0.628604467182501,0.590651631647164,0.417522070019163,0.140609367660832,-0.181597341980871,-0.470321282149058,-0.658165310937155,-0.730956669706961,-0.72195388401375,-0.674307729446609,-0.624221456780797,-0.590881129159768,-0.533787858993278,-0.337118853230933,0.0699233599436104,0.53525358603238,0.726027338837661,0.45830336989942,-0.0581242540683554,-0.40606280095482,-0.372832026037501,-0.0964761154268884,0.17004228260858,0.330157790126901,0.446346855036242,0.561169886058742,0.620544913222931,0.570624632383603,0.43006761520729,0.228608220933636,-0.0341000948293812,-0.309307070412936,-0.470223235435528,-0.454261525679978,-0.372591071480323,-0.382536654411754,-0.49540385610745,-0.600194464595739,-0.626816296372334,-0.576245649675762,-0.422873501100714,-0.116102626254302,0.292107213050596,0.604314634528454,0.624932889446313,0.347997151106643,-0.0200429987794666,-0.229489404077121,-0.183933361339496,0.0176107436889055,0.21320766168067,0.329848576147842,0.404723321512507,0.497865882784483,0.616967595606956,0.702865185263125,0.660559970817532,0.436014609821731,0.0909126147642325,-0.229362171499884,-0.419111402413942,-0.47902784732113,-0.476753264898927,-0.486060255583144,-0.547385807521495,-0.644862813952637,-0.718091470491596,-0.687970328859473,-0.464153075527237,-0.000957193134173496,0.567364726446373,0.903269330210023,0.730302985223801,0.159061891146758,-0.360211026277872,-0.465633711670796,-0.190281371514613,0.177913595723567,0.429437645459181,0.563628419732857,0.67132686338783,0.785006498597963,0.845605837272171,0.765561919719836,0.504544994464655,0.114672248119065,-0.267549905832257,-0.511019410783525,-0.605123324626929,-0.653518684956056,-0.728567478993258,-0.78318096947155,-0.745687239378134,-0.633710479037103,-0.488888343112979,-0.246458270799059,0.186397759810452,0.681880712770309,0.86395273279842,0.477629506801059,-0.248475430046596,-0.740891909744212,-0.608979683780031,0.0248966453352682,0.702914752051421,1.05215146485954,1.01897004827658,0.782537476600236,0.538487157010052,0.377562832305909,0.284783246308062,0.178134151550932,-0.0163482061081035,-0.267438878905025,-0.457158611984772,-0.544015430349069,-0.636745487095855,-0.831885455355535,-1.03902691819902,-1.04870031808745,-0.741161774908618,-0.182782213292265,0.42119507194714,0.805707358926887,0.762028284719221,0.312781904941211,-0.228655654282377,-0.476702305799386,-0.291300021456979,0.144845551450429,0.540902079436682,0.736000905963062,0.745375796276182,0.666852566272979,0.597439873836176,0.581246307567166,0.551788754136784,0.356976963846644,-0.0562760649464341,-0.498113604185068,-0.696124756371103,-0.611210348950146,-0.481716690077682,-0.530411056887975,-0.728719594383662,-0.875684188695248,-0.808074952429208,-0.495332393626053,-0.0318448838071038,0.389820753700112,0.565151416558725,0.426782766258676,0.108511919155173,-0.167569521345258,-0.257873477163821,-0.148741840720189,0.101744772897846,0.406052276069943,0.649454263034123,0.741164666732708,0.696231678870806,0.606207046120124,0.505619904837059,0.331569194724122,0.0466318859556412,-0.247708270737765,-0.371033009842471,-0.264197914866765,-0.123929418775679,-0.251483919541737,-0.694011569556643,-1.12242867164418,-1.17858775783494,-0.865032781949036,-0.456192168537118,-0.1055267621073,0.252983766998734,0.603462382744674,0.678850893721864,0.273476820996223,-0.362420783112539,-0.666895377435112,-0.365549524469491,0.232812890776807,0.628434575492331,0.669707273241067,0.578274240199518,0.577824327751176,0.673516405732022,0.729809422019758,0.61349270337141,0.28421536750478,-0.15353171454852,-0.500088804940171,-0.621148914502796,-0.551676953895322,-0.436334937983969,-0.414083691183555,-0.552647544009913,-0.801331941512694,-0.973165346085634,-0.853686488202911,-0.386632463964628,0.257364199854709,0.776174528622637,0.890665420732923,0.519612379052083,-0.0921769866139166,-0.497887295410032,-0.422451318758944,0.00469962549300407,0.433501449671663,0.650762020355716,0.701416839163135,0.710501136034306,0.689892511550162,0.57696441771137,0.404605552758053,0.291421569450063,0.231641301357795,0.0493529289301837,-0.343919722786523,-0.770655349509799,-0.970611696611938,-0.878211451324981,-0.655888495157212,-0.526589532845734,-0.576410256047717,-0.625540849938428,-0.347432231435018,0.316793726729267,0.912496015345801,0.877885568210517,0.230787480943241,-0.375153645515726,-0.379210034423294,0.0866122089430326,0.466160468688588,0.488305816659021,0.389960485073174,0.490218426512102,0.77664212392,0.976393079316915,0.882819837064242,0.518478467811453,0.0667369651011394,-0.271254359469919,-0.407487257240141,-0.428694615251186,-0.504347198415529,-0.703267595361819,-0.928992939051896,-1.03462404490851,-0.946103101118957,-0.665613409334001,-0.22595236100671,0.290507814131779,0.698952627401878,0.773253996497824,0.454196059098592,-0.0191482784628546,-0.281961423638638,-0.176291205492191,0.145161110800638,0.443494020347191,0.625975862391106,0.733458859550263,0.80777098585866,0.836900546953342,0.765279909729298,0.522841367979704,0.114914375657652,-0.298737715893965,-0.510771493758876,-0.495089400191548,-0.448686289528262,-0.562704488497946,-0.825359418339962,-1.07718943718914,-1.15085672718216,-0.910245200812941,-0.309004750406447,0.447704172779219,0.906079312253555,0.728622861430501,0.0743360455120482,-0.504930723675261,-0.575168348958099,-0.166287610542177,0.358789924068383,0.665850834552577,0.673280813776037,0.531848208627069,0.448883122996091,0.497202215688503,0.566597361197461,0.508408752660738,0.305559043667343,0.0665787268998604,-0.121035840509744,-0.27376764870373,-0.451334603751742,-0.664821652483677,-0.865192855103715,-0.99700301071262,-1.03073377637423,-0.925789421434766,-0.595831321520471,-0.00976378411082341,0.623555299031361,0.8907855353385,0.551991241245607,-0.140746461173553,-0.632861726535265,-0.584991743089269,-0.133208148584141,0.32915778380547,0.532812254921414,0.50344376533987,0.444293852564474,0.503772666740801,0.648854737490429,0.728519935359526,0.624668568037739,0.341204503867178,-0.0098075362783422,-0.283307175454235,-0.401321141254218,-0.422951857675194,-0.499177062033544,-0.715339487419182,-0.968502511025986,-1.02662137524311,-0.742261453606127,-0.216097852878725,0.274721084815831,0.516015101273046,0.495500865733806,0.318636797339366,0.0688532583041059,-0.206444755126166,-0.423102721853528,-0.447121050791792,-0.194720423884711,0.251534484042774,0.668240028548672,0.874883313924361,0.873399038645043,0.776727718351414,0.642444246964858,0.440083154524798,0.167999767589411,-0.0773877987996835,-0.199927281086979,-0.235968000384221,-0.318529313763241,-0.506111484345585,-0.699807360689352,-0.74848914542984,-0.622205817290235,-0.464146365035809,-0.414698272624522,-0.369008838757932,-0.0599774090901557,0.500006442061323,0.846864724089281,0.572555093792285,-0.112524767984962,-0.582429227173088,-0.4999901029261,-0.0870734340515015,0.271066951120346,0.453799456367467,0.585610378378171,0.759458485999683,0.903161456642354,0.883505055753601,0.661389845459101,0.324516672646593,-0.00404962515911833,-0.260855618817532,-0.441170875029238,-0.535641412309632,-0.522592538524565,-0.438934337210571,-0.407464477665593,-0.533251132833978,-0.758150294557538,-0.848200112084801,-0.581011853397666,0.0135142454437701,0.616996328179722,0.869844654774001,0.658606702973322,0.157600371982996,-0.347624278326086,-0.615465316222432,-0.50490933316579,-0.0410275414880915,0.534814560347299,0.903040185156206,0.940858838823719,0.800546749371378,0.666081255925599,0.521252338867233,0.24673172611822,-0.126336877293972,-0.398537133734351,-0.447138135061231,-0.378177923051674,-0.388698936848236,-0.555637702234301,-0.798273701169902,-0.960158459991044,-0.877168789076802,-0.459777239899056,0.193182452519818,0.777778137939509,0.951717263671891,0.588609910554386,-0.0776771490412637,-0.584117491471039,-0.606363719857787,-0.22702022692544,0.207813886283287,0.464589516902235,0.557402631677784,0.573427811204406,0.557110806441445,0.564955605310901,0.628029645401751,0.619572306848723,0.34916570145484,-0.153292959774032,-0.608451265116984,-0.794083355520208,-0.749230661097537,-0.654102204988872,-0.637041902768387,-0.697548055070281,-0.689351633376516,-0.400067813840554,0.202828565586673,0.800633018824209,0.941705774251525,0.490743748997427,-0.210686930045305,-0.665825686926259,-0.64123819116889,-0.253585770115399,0.23086510480173,0.585449293938415,0.712720096528037,0.686924319327155,0.675321466671952,0.726302347475429,0.685055063184121,0.40632951868198,-0.00988692151325013,-0.309794186678586,-0.391194286794695,-0.40463709997168,-0.527724038306626,-0.736160050354289,-0.865776463506547,-0.833561374642403,-0.690404119869962,-0.475594326566508,-0.152632706826619,0.251699998131648,0.542434737223593,0.504272506274514,0.145226287787594,-0.275798054178617,-0.467037133523148,-0.322621100067858,0.0353605110316511,0.376833011668451,0.542607100875692,0.54826252039453,0.52520223776793,0.570727657029857,0.660182251070156,0.670513210726683,0.474162528376793,0.0680863120700457,-0.360502681732401,-0.577708403942265,-0.561229028177023,-0.524688703801635,-0.630098718238228,-0.785727734567659,-0.808124390769965,-0.676178904036744,-0.499177278762919,-0.291863453869478,0.0450935465165523,0.468262907881191,0.675483429171152,0.41133658495635,-0.166491198066251,-0.579408735142831,-0.497054056655714,-0.0353939531156893,0.413495176402373,0.593366670903332,0.595392521193566,0.664563066760516,0.853300712606585,0.946632252487741,0.732066116851872,0.265741870180362,-0.178132712829499,-0.392809939806321,-0.415795461524193,-0.413075367620991,-0.458948633207104,-0.497814275447223,-0.486681168106812,-0.484789565980688,-0.56853647333784,-0.67631337459424,-0.584564970859518,-0.129222560412154,0.513740467898537,0.888504050047746,0.707910884826052,0.167178290534669,-0.274772067988713,-0.340397108258489,-0.0837745520832734,0.284403871056435,0.585180350992165,0.741489590702113,0.788996424330426,0.815730941349145,0.823415147784015,0.68163153489447,0.302802770149487,-0.168509660573293,-0.454865455843263,-0.456602782221862,-0.373007206583937,-0.459276144478908,-0.723339475067798,-0.940511036715674,-0.927528125186538,-0.689335990769835,-0.305920859307622,0.165831005231563,0.60428634993098,0.773696628426453,0.515926652170797,-0.0226148667138129,-0.455725721980908,-0.481028182774524,-0.115159667425147,0.374809858695192,0.714716370903508,0.792262977874601,0.66753045134741,0.50196805291612,0.452776390707428,0.530528324040837,0.539285694862833,0.26137572404301,-0.258292308971691,-0.712989400978639,-0.867960749818159,-0.804214737265607,-0.777961536989245,-0.90471048281886,-1.03428988911603,-0.907696418900105,-0.406834580995767,0.318960612067305,0.91360630975028,1.0077573129685,0.472596189979649,-0.399720961757356,-1.00517513138035,-0.873278287833094,-0.0956896478086127,0.735255652631629,1.0780679022805,0.904533061952385,0.588312717669091,0.437512659171068,0.453648451132794,0.478649474553574,0.396035454522507,0.162364150035364,-0.203292522425544,-0.574551086049947,-0.763987894002978,-0.722913337903301,-0.637025018067498,-0.708636457375256,-0.880895049785681,-0.895396743092916,-0.589219562636328,-0.030048180734326,0.563046454163806,0.898446990984414,0.7263811642176,0.0853386191350269,-0.59367932790887,-0.795105293430348,-0.369512403744168,0.355174030328253,0.882639859435259,0.957905294737977,0.728484521348782,0.532452869211657,0.53035486520488,0.581696585864244,0.482914331065528,0.226614883971703,-0.0385336788952972,-0.215948073807082,-0.32686279661058,-0.420107910255513,-0.520241659039437,-0.642939801849794,-0.778818458925404,-0.870409275236113,-0.845987066193107,-0.649700376927068,-0.244227773603877,0.314721418163315,0.781350661620117,0.838016017982085,0.416006935581809,-0.170500585014523,-0.491444587119851,-0.36595250351117,0.0540897566749598,0.474157844071012,0.68196501506852,0.653486569389684,0.514724382944659,0.422104253428915,0.46160312214468,0.597758027706959,0.665101719468627,0.457718040432574,-0.0749649782518329,-0.701144095906176,-1.04188362560008,-0.907259389587995,-0.50564839112515,-0.257170416714038,-0.370739747426196,-0.665374453510471,-0.823425467746759,-0.70429979101231,-0.355206098439816,0.127991949375466,0.597061142669374,0.808701145037917,0.587571132712938,0.0618924047597169,-0.375817545617159,-0.404460563404281,-0.0498814698763039,0.382765447163915,0.613192100371512,0.599820209991745,0.498566372948216,0.475477001506787,0.556562227929662,0.617887520429996,0.513592745684748,0.218339451766339,-0.159551448883592,-0.479141529932658,-0.659051522956634,-0.71317056305067,-0.734004165875819,-0.802963757446479,-0.883831157576774,-0.841369585131617,-0.588820245230097,-0.176770876803257,0.270882968393938,0.631567986862143,0.769148066261278,0.569540413344564,0.106219884006088,-0.304854342879892,-0.357665750201828,-0.0566389800586485,0.322224292937251,0.545761062187341,0.614887191008048,0.66616834506973,0.772233885829563,0.856362893142831,0.775769399790658,0.485045303110475,0.0982224718834784,-0.233373562752446,-0.457122181001628,-0.59730429466918,-0.678590263572478,-0.738039204533814,-0.835096766561349,-0.962767215505751,-0.983397108242428,-0.717608806763684,-0.122703442693143,0.589641233252092,1.02646203493685,0.908329321279728,0.358037997308016,-0.176305086518543,-0.351553271568099,-0.216460289308807,-0.0202158426547928,0.144231129740582,0.369494067042158,0.675809779960137,0.904675730643613,0.909130158707673,0.731290382251702,0.512996244160828,0.290415991089564,-0.022907384278433,-0.443824150467,-0.809849769322629,-0.934627606519898,-0.827299843300589,-0.681196006839549,-0.655226146398581,-0.71748247658668,-0.696356113399099,-0.443964150504008,0.032734088192318,0.533539753876149,0.75493261866667,0.518676760262538,-0.0213437894000439,-0.45724470734548,-0.481052785976477,-0.137719359805296,0.29187691830559,0.581539748352004,0.684527003722281,0.664781921588848,0.614504171085001,0.601062772400409,0.594661502164913,0.465019354068365,0.139565949220701,-0.243727232146124,-0.435194313890648,-0.354889367763306,-0.219675070100347,-0.335205676472596,-0.750784232685918,-1.16630367343392,-1.24410357014918,-0.965960920113225,-0.552697777935003,-0.0927200182830549,0.479174131189844,0.995461681529257,1.00398591221747,0.336192649841425,-0.50942989486002,-0.8304265046309,-0.455526384909319,0.185070678906548,0.617357130584055,0.744397962767993,0.751806713614012,0.787407666410907,0.816642529186451,0.730267385225738,0.505608849936173,0.233432928131326,0.00998361789991216,-0.161679471459966,-0.335471282981783,-0.506518856354951,-0.601530697399014,-0.595726932399422,-0.558527279272677,-0.563502884598879,-0.622220335519359,-0.690271152874434,-0.652655614073742,-0.358556701670582,0.184109324683909,0.673898434858668,0.740131759785387,0.336512142528084,-0.192675698640825,-0.450919663434019,-0.31182912943243,0.0684251284586948,0.437693676754627,0.62733972632502,0.635749062137234,0.580966412495501,0.560622215806746,0.570356244857778,0.559668943187474,0.498599308458069,0.346759516557142,0.0402306632119571,-0.39156292684279,-0.742733390344305,-0.791707000760251,-0.563949022637901,-0.342026236908134,-0.377404666303191,-0.651151010177305,-0.930486391888522,-0.974883588052859,-0.665178192184948,-0.0620468051566105,0.559522407782452,0.826261093852714,0.568868441217202,0.0160558698808813,-0.392736864946146,-0.395097507639131,-0.0762384904098464,0.296079874141269,0.528204045253653,0.61079751530607,0.649278014540062,0.706813209958974,0.7081913490088,0.528818869746228,0.18567285086991,-0.136883286584673,-0.300886302175191,-0.375672072372112,-0.504407066967367,-0.681258731903482,-0.784476197965047,-0.800881351709131,-0.857551657335232,-0.966599865380584,-0.875791794752215,-0.344375777268343,0.449057593809493,0.951253957050787,0.786199771884792,0.17696588051112,-0.29538655069342,-0.311411140110773,-0.0556149744238067,0.156415376776468,0.287497790456111,0.480439032902778,0.71768979462676,0.82401867286269,0.756710880435783,0.649084750059558,0.548300863110963,0.327637668791448,-0.0731209854673207,-0.481862371055202,-0.661968105361732,-0.573950302677455,-0.419547950617028,-0.456195341257276,-0.759848641523286,-1.1104420826429,-1.11335996108137,-0.530623905859166,0.421727565105105,1.13457731054002,1.09382709843493,0.394240427112026,-0.301081020523091,-0.41198559393756,-0.00196996242111702,0.406177022436203,0.493700698952305,0.449525829799891,0.612096159245586,0.99547242275149,1.28042157244271,1.18443270431078,0.739951513029568,0.248524486261609,0.00819609360452132,0.0341987632835712,0.0369567410521794,-0.251482895661037,-0.743286622224203,-1.08282993954548,-1.05562366939914,-0.797304532043572,-0.566829410033302,-0.405329786773466,-0.122594025574805,0.370140335023057,0.823511775550301,0.862765332313545,0.419283691693663,-0.156656101178475,-0.433913395581851,-0.277941634862311,0.118183464298123,0.485504630950247,0.694998852802532,0.770084738771802,0.780039024169246,0.752386171190119,0.653003133338474,0.432706539177158,0.113165913640689,-0.181556210302696,-0.332332472789621,-0.386950140744217,-0.551713357604544,-0.934452358845257,-1.32205967187631,-1.35367963326198,-0.950581043188651,-0.414262585218743,-0.0223573763919687,0.274579014909903,0.600968244324671,0.803906195838591,0.61282555919249,0.0680750947558273,-0.446184958393561,-0.603341477362381,-0.417415650626512,-0.136435105965554,-0.00230923172998554,-0.0959467572199084,-0.32192577174677,-0.492887118036721,-0.199793639608018,0.91165806086306,1.86115596942965,0.915167218103194,-1.29988758895489,-2.18647270513157,-1.22863347139763,-0.136244361740545,0.239024671513699,0.240707606171738,0.120087672798086,-0.0456241201892138,-0.144041984184062,-0.170203263306012,-0.242233189879597,-0.447535474631322,-0.699491969865433,-0.768022263589145,-0.503838010218644,-0.00947469577756081,0.433312694531905,0.575830766967899,0.350076001346853,-0.107058790853481,-0.511184723971082,-0.581021210487727,-0.255192473768316,0.227902494135692,0.546115871933091,0.60754720558635,0.587598699705517,0.657112148060989,0.77017953742023,0.752756294990608,0.515678498099922,0.128964609801912,-0.25436539421327,-0.497802897331442,-0.554215812179902,-0.505308609081302,-0.515376042160127,-0.686511417490115,-0.929059251441426,-0.987004773340771,-0.63404745115413,0.0955474457027804,0.84621183870588,1.1624125691319,0.853483577185411,0.175500342331731,-0.364354969481101,-0.408858505709994,0.00949888193515564,0.559440884589803,0.89052578593418,0.882204623084194,0.716954981259491,0.692281358563315,0.885262871170643,1.04130702054763,0.87222745052742,0.399227591773741,-0.103305371614597,-0.437834238208838,-0.620182117106258,-0.724249851400092,-0.762066826863555,-0.759866176872881,-0.801939829412293,-0.883309393132783,-0.798085933767553,-0.322893765118943,0.452468024772448,1.06077459191795,1.02815258354681,0.355256221287774,-0.413379228265826,-0.672580316543388,-0.312916948427927,0.252394761268694,0.583620882466835,0.623739881839425,0.604220578469258,0.696940747897199,0.856317052153305,0.914200786636685,0.73620682168268,0.339769104933758,-0.0764525178498359,-0.276985627907672,-0.233047118359331,-0.184571133480931,-0.38971436630964,-0.825399020826975,-1.19465276718743,-1.22860312686192,-0.930771463959316,-0.518577648764566,-0.175961968626637,0.0925739538847349,0.35896502278399,0.565467437986871,0.509227689262067,0.0939322122725155,-0.45532315380194,-0.732826263504338,-0.527536548346596,-0.00618054493967606,0.482663669048082,0.736427609419781,0.813591058486398,0.863279722951536,0.898828588134539,0.783100994195796,0.435704727703867,-0.00989409111774312,-0.321027180649147,-0.413110907836275,-0.406444553959198,-0.444082974302237,-0.54309605820097,-0.647420822175323,-0.743246641950143,-0.858926608444503,-0.972225544070693,-0.964635693731222,-0.69869326588617,-0.164834097753079,0.434546557664244,0.771027899134518,0.630710974169489,0.12686081442803,-0.352934660131625,-0.469288980820798,-0.199032545633478,0.222293928352086,0.552778172965538,0.698900202205616,0.707525322853607,0.687880273660508,0.703357863465222,0.69410018282852,0.544401882465629,0.24176974417223,-0.0929973095888429,-0.347742974714986,-0.518864296166583,-0.650741565808492,-0.751228229867964,-0.810089556170415,-0.851250184239837,-0.899616794625559,-0.883901108264682,-0.631310582283349,-0.0521928920179336,0.644678762703115,1.02174231759813,0.806156945438351,0.185748743919132,-0.36636097772146,-0.518818234398321,-0.267713752845789,0.192612976013556,0.632599506786097,0.881188921762637,0.905843911178506,0.804477634610651,0.678426995815235,0.560276430892597,0.457979282184529,0.358953228135513,0.18379255556797,-0.145831162036194,-0.566726619489769,-0.888879615168207,-0.988219956653979,-0.94327408545278,-0.931306567025846,-0.972312650160741,-0.828982608122301,-0.261674113194795,0.593044251458144,1.20173411918737,1.09736355826657,0.353317114447373,-0.464189252909449,-0.801095226888957,-0.535303845550614,0.0400294137923694,0.544920280824404,0.816765792629519,0.940504903912971,1.01754069849694,0.980523399881511,0.711973739102449,0.283761847480736,-0.0647643793204851,-0.201112167566705,-0.232684819704187,-0.322147684106995,-0.478646954572821,-0.618434865763297,-0.742984306973136,-0.915602014086551,-1.08291316026945,-1.05095219581496,-0.67375981184269,-0.021442689603557,0.623639852408634,0.919501926296034,0.698736603705133,0.136433567681877,-0.351232255548767,-0.449801691457156,-0.189331289772002,0.171034920919717,0.446303307141392,0.645015847873799,0.822427378605934,0.936680533142937,0.901027454481336,0.69865743298119,0.382897087217073,0.0226080089002072,-0.294884249993903,-0.466886007501107,-0.463919122691818,-0.403826622988756,-0.471797027809774,-0.73351349805471,-1.04865800279499,-1.19832850544433,-1.07460246115361,-0.706316319866562,-0.157753190255499,0.469806876067912,0.933757505286851,0.926645598134529,0.398319771902297,-0.272319874377579,-0.574319816726576,-0.338014495545886,0.159718120993232,0.533230382831408,0.643288658541368,0.62076466167111,0.633032534912669,0.698937072532509,0.716096975602705,0.595295047816047,0.331711323791493,-0.00942199268145941,-0.323156684065944,-0.503885814792911,-0.523012366704616,-0.485313520703468,-0.548338124274744,-0.739834671134409,-0.905349067544264,-0.895720613860838,-0.737938439146724,-0.525149149384953,-0.226561032275253,0.217022177151562,0.642965966274859,0.729511993065333,0.3817228463993,-0.094707213016659,-0.308467763916647,-0.1792324367081,0.0805084897382452,0.295406975019789,0.482087219317518,0.68516670895179,0.830498403273702,0.827830580306796,0.713196089465249,0.579035129226891,0.421452553750013,0.171397325568634,-0.147519376713139,-0.409207430406234,-0.54551026290762,-0.618634794793133,-0.704587298560019,-0.792550695086569,-0.843186054166036,-0.857319036108502,-0.811806429512803,-0.600126875661506,-0.147326462776609,0.425582879289046,0.8340381487767,0.855150946097248,0.506164926125636,0.0194125218450094,-0.31731691999395,-0.317664847784481,0.0080059357757496,0.456308256576194,0.776186395591274,0.862437516863904,0.793245129929125,0.686948527792072,0.585247212684944,0.475233002171854,0.334672199845819,0.122571127121604,-0.194027487534681,-0.550547147507108,-0.786314827268494,-0.804693207293292,-0.696075020438334,-0.641456862392335,-0.717451320185642,-0.830560568197706,-0.794566770279501,-0.448508547474963,0.195629888707015,0.843577941300853,1.06493015862785,0.686976522892339,0.0121905290666497,-0.450965745314468,-0.454581754487806,-0.153731542345048,0.159510972243052,0.359441899013872,0.520595713870306,0.731542175758985,0.936724930032243,0.975456745196024,0.758461630033153,0.36605754676642,-0.0407619169473867,-0.358399843191788,-0.558456178848314,-0.634798973219982,-0.621045492814966,-0.629264924904687,-0.76144992023287,-0.968040486298668,-1.06788138885729,-0.905864971537933,-0.444300075305103,0.223515135697365,0.835648988165996,1.01766469951915,0.578281439368922,-0.206397378322466,-0.743747141412021,-0.654508875748394,-0.105480695660849,0.427382269068886,0.656011774161326,0.668192239565833,0.68049045930174,0.742620316673172,0.743350445667617,0.62062366352506,0.440858267813614,0.267475095554158,0.0631214443504591,-0.222860002079768,-0.536221058457772,-0.745734789243571,-0.77205589241952,-0.673137366511248,-0.610866487841582,-0.706169010300889,-0.881411464035931,-0.867324409231783,-0.447098825702969,0.272238954690919,0.879159881650169,0.988003831103065,0.550178818054101,-0.12335295286887,-0.586000833728906,-0.547042892648129,-0.0673793655939922,0.49327914918088,0.780731402064924,0.73532987902464,0.584283023261304,0.572782945206028,0.71992667176859,0.816552938896369,0.644057245376109,0.206673710936622,-0.24968165563815,-0.467470509631333,-0.428053237564489,-0.353055094821943,-0.450960233560226,-0.687560742601097,-0.84395814242281,-0.797694735048765,-0.66703915533829,-0.606895908939088,-0.532366007859695,-0.200590813577215,0.402648470336096,0.899708278428509,0.86068438985924,0.270066876976581,-0.420229014672719,-0.693591617670966,-0.393229274209995,0.213355702841211,0.715672842879708,0.882971542634869,0.770747712658835,0.597577654366117,0.536977255898742,0.579934117919116,0.569562589101525,0.37372212550505,0.0222480761371253,-0.315392369745007,-0.474333377117213,-0.448799907838291,-0.420490425106683,-0.571728406336902,-0.853403869817928,-1.03154018140366,-0.979497414812862,-0.790098077800429,-0.558234450571341,-0.216711092411868,0.291531882706421,0.771090599840444,0.85514536853833,0.378482213870082,-0.359048285646145,-0.768072107788364,-0.488564229806982,0.251963971179751,0.858562885238216,0.960277908251034,0.715842372381383,0.524773980477713,0.557234966620495,0.662253812433308,0.645488153451101,0.47302205583059,0.208538822845467,-0.0977000813105756,-0.403456005960157,-0.646694137615122,-0.783436421259086,-0.833994043331579,-0.862879062413725,-0.901163673951204,-0.898809399745497,-0.770362747095002,-0.469567149025024,-0.0152604356231825,0.484596912823026,0.804620565820534,0.711319599108195,0.208583443027354,-0.368163839692386,-0.594664568563705,-0.313735915231665,0.2603698047542,0.76388550096949,0.975479585196315,0.916252948921013,0.74786431145249,0.622852574529568,0.587877163250436,0.56312345668624,0.415364236167091,0.0903744316802015,-0.315971007370429,-0.628293492018091,-0.736875242379609,-0.683411933277417,-0.621090104307161,-0.683323632638089,-0.858866728952938,-0.975668260477819,-0.822165960015923,-0.324056000574811,0.355981628895637,0.879927742922232,0.941476919018376,0.499282183937529,-0.14822634300518,-0.56184585590978,-0.503303248731959,-0.0944015516528204,0.364805640822244,0.6871937215394,0.871011012228553,0.954196842620127,0.91689023064135,0.748718595664127,0.522324184899185,0.327336118637589,0.155827722215226,-0.0773018177700021,-0.391725632015455,-0.687767263428605,-0.863666656141337,-0.92185134876347,-0.926191193894597,-0.914622754990443,-0.865915653381006,-0.68184880955675,-0.23761659599613,0.406081274615278,0.869811932730946,0.758128208320326,0.151009202748958,-0.409804651712686,-0.499774460310614,-0.192575176217375,0.18889595944548,0.469006934989938,0.647020084633663,0.728778343943685,0.713828418769148,0.667447773009242,0.662827778279432,0.667107161714276,0.568982078667849,0.321870626999479,0.00393032320893791,-0.279184534476932,-0.507038860504448,-0.720296073625196,-0.908235286166035,-0.989277024295989,-0.929060377370623,-0.817967891356244,-0.757872378602341,-0.677528710674428,-0.355441476199412,0.273967314674453,0.868403884763002,0.912237337249554,0.307224515896667,-0.41409121286903,-0.624300343874526,-0.250547509087437,0.265440461912478,0.542801293799615,0.590144997205249,0.611121594484615,0.700605372509327,0.79180531560613,0.783899870687722,0.645668791094528,0.425575408187131,0.194654156427997,-0.017093348057746,-0.223476752864696,-0.439077533939359,-0.663156176493873,-0.878753778588435,-1.02597985252835,-1.02276822367674,-0.87488784578599,-0.709395219378985,-0.60136732140722,-0.410696675978987,0.0529687538855235,0.669327917429467,0.983976720313657,0.680324092560447,-0.0254252783367199,-0.589075118171587,-0.652360455211547,-0.251731948851789,0.342409664765615,0.823057315202448,0.982793428145923,0.844771818512959,0.645672394228646,0.581290458867238,0.593139479846375,0.483108293841225,0.193332473641021,-0.133620170681973,-0.361469192885047,-0.505113572735113,-0.62880237192331,-0.716588208235655,-0.737017427629244,-0.753433092099292,-0.841819588363796,-0.917143753646326,-0.760276355047209,-0.26983608720858,0.361334702435711,0.774398740726142,0.748491165948647,0.36607967228208,-0.0884518395238204,-0.34669879182021,-0.300070089244867,-0.0216080749728952,0.305291138383788,0.520767421950119,0.600662808747323,0.639187211622775,0.71989689179571,0.816311695944129,0.815209504127389,0.624664912649242,0.26337614248686,-0.143834443606497,-0.454287329606747,-0.603587376905924,-0.64089943424693,-0.679497758035275,-0.790548521216198,-0.92756343178,-0.965233586165178,-0.815196730685835,-0.483345132812995,-0.0303954544490926,0.445421853283237,0.759428538210181,0.689012925511714,0.204853399539327,-0.369989248459876,-0.570897035159368,-0.228728736200855,0.360118572170104,0.75273853777844,0.802975939955672,0.723127124590086,0.748823494184273,0.858381340710095,0.856811716750735,0.645213661132395,0.315626128793356,0.00232580136975996,-0.265907038465014,-0.531658654225674,-0.790202203637103,-0.96299248577996,-0.983774625361099,-0.89053195144309,-0.805938138273974,-0.774116108333768,-0.631919080067332,-0.179444006293774,0.461045156156433,0.823347487123249,0.589275681394051,-0.00191264007067683,-0.393064250983297,-0.290416483147471,0.125270897182544,0.498057294354435,0.651843097583695,0.653479420038033,0.653371809528489,0.724551033694027,0.817032242224068,0.825008563605169,0.682777479025668,0.394327553275404,0.0137683249074678,-0.353723023518304,-0.583587317322566,-0.647244335620507,-0.658302412505481,-0.736673577273608,-0.87449750047757,-0.979676762874178,-0.969271288360324,-0.7627606984076,-0.285607928070508,0.392782072135742,0.953734679396456,1.0142712363821,0.507835415734783,-0.177631761902638,-0.528868467207103,-0.364196602776837,0.0784883049680375,0.457795184463241,0.639008547391119,0.696858553810609,0.722855519658799,0.714759605261432,0.6349978201095,0.502866024095236,0.379347779064009,0.262371173049414,0.0466620496388811,-0.348187149135074,-0.810590411174009,-1.08334896189725,-1.03139309400598,-0.805971103995716,-0.677268133723934,-0.736428077918882,-0.810891989486128,-0.64304811207321,-0.129244152600107,0.551391751951903,1.00463400009416,0.902617755499909,0.290061337523876,-0.407724324948412,-0.724715163353031,-0.499057071453004,0.0791673915967504,0.660043111879102,0.953959643782329,0.87819755103006,0.587106264763526,0.329711590888399,0.222334805839392,0.17199791630489,0.0283594515379184,-0.221242304676618,-0.46073913987303,-0.603238442072374,-0.502931997071557,0.0185058855152971,0.489064143908944,0.045252837272405,-0.92166638246388,-1.1215483724362,-0.583506917169189,-0.366267213946385,-0.635895475234835,-0.781948521363501,-0.504092235239923,0.0956906580373282,0.761667835942517,1.15328169698814,1.01176822712071,0.378553829775809,-0.374269448181088,-0.781009489453752,-0.618552870691364,-0.0456091392925536,0.566042926628684,0.92309517544255,0.960692012269782,0.777034062763069,0.503199038343335,0.259840938285315,0.160525238023886,0.235259818649569,0.336164598844107,0.236611788847499,-0.117041730221352,-0.534427666329123,-0.795930904682399,-0.856524207221436,-0.829574535322491,-0.860012700178902,-0.989261625387281,-1.03283455224132,-0.656629815407327,0.22357107620881,1.12705027390995,1.34098941946327,0.677923350823567,-0.266390898264413,-0.721658637812614,-0.474754522404658,0.0974544628295256,0.55482082506625,0.763979746237477,0.820421542444787,0.828016256208841,0.828436709442612,0.823958928855233,0.76782799176625,0.57857475671406,0.239044841123036,-0.135235263147695,-0.378729537585369,-0.439214729380478,-0.445547569358279,-0.586126475161163,-0.89478107659504,-1.18832165416667,-1.25792410901122,-1.06070307929268,-0.654531148256597,-0.0653878871022426,0.605303292192719,1.02589131779014,0.850008134392754,0.150199766739172,-0.543274579671689,-0.731226248333439,-0.374323644880173,0.197913125410262,0.659002849882846,0.883308266864773,0.900496982730186,0.800349921949918,0.675884519853806,0.578507975370948,0.49151486190593,0.358007237970424,0.15484913167679,-0.0669746378605136,-0.248075549956973,-0.413505316648182,-0.626662795627937,-0.845466611622754,-0.930936146994977,-0.848034858376005,-0.753168820490079,-0.778206167712666,-0.77971737398964,-0.44689032723709,0.274423560826996,0.94964402176364,0.994001154789136,0.29590946770996,-0.580775032337635,-0.903225253845519,-0.456419518335284,0.322306149921342,0.839410829028977,0.878408954610173,0.655901404528566,0.486062379175348,0.492843078593098,0.600961288225292,0.669258146626645,0.584442730733111,0.312254969531185,-0.0705637165626214,-0.419614908675396,-0.625864989978472,-0.669229646927299,-0.600138251314486,-0.512759294945318,-0.516093585931903,-0.67373259148753,-0.929198964631827,-1.06920988549281,-0.816821625404119,-0.0996364384504374,0.732750860612969,1.10531868559221,0.75721841289957,0.0276914331109129,-0.475825695418944,-0.440490734080468,-0.0316880316799631,0.381014869745563,0.560083219599535,0.508459317299161,0.388984948255437,0.383858860940073,0.551851152405242,0.765809387532382,0.825541859559336,0.648592466017687,0.308777938406333,-0.0870994647870265,-0.464134972364946,-0.730454601017414,-0.794141214611704,-0.685235316982578,-0.576363471762745,-0.61065668482121,-0.744888731033438,-0.804490575187176,-0.65042572514869,-0.25677122929595,0.290841781503349,0.772826077966663,0.883973559914644,0.482972058656091,-0.173698822302489,-0.588805199969994,-0.490060233150518,-0.0546431860764623,0.366050872368216,0.616182067369976,0.755090559381259,0.847710851841913,0.878838616061336,0.817656359857979,0.658123190177903,0.41655774198746,0.144071276530485,-0.0895578700968651,-0.261383423879772,-0.408849618224852,-0.549563003757792,-0.641388582569442,-0.672910323632604,-0.735849837026907,-0.912754862383434,-1.09495068127541,-0.99808722023609,-0.433411568084319,0.41735179502457,1.05031433054852,1.04933209203209,0.469146812643239,-0.226126540713111,-0.585519452500963,-0.488755216254374,-0.110341614409528,0.306455859806798,0.614528122391903,0.781471728492559,0.828346861958119,0.788448512960006,0.702421280391497,0.599329945316877,0.469075029504913,0.273382301626245,-0.0101532161770108,-0.340459556406331,-0.599876017694513,-0.683249351107621,-0.638412955927002,-0.65037672289318,-0.834619407898987,-1.09111396990494,-1.16988069126763,-0.842449967727277,-0.088110872047702,0.771006936314258,1.19331268118621,0.860217421148745,0.0325958633008618,-0.636450971515221,-0.693584329777444,-0.250832275029378,0.243411859850132,0.505682706100119,0.606818360963884,0.724824304885793,0.866497360499733,0.888275292886145,0.703594970931271,0.39705586843918,0.147611251552377,0.0512219599913935,0.010906607883186,-0.160911910015781,-0.495465516726241,-0.785428131902412,-0.828618205907472,-0.702847659166624,-0.686799367942334,-0.90484236897532,-1.12723901209217,-0.959125719567363,-0.243435072355466,0.694923957234534,1.23920694902148,1.00911154655959,0.230737931967487,-0.465139462888178,-0.621392166100759,-0.300002409259248,0.11501625602817,0.354680077082594,0.447852628842036,0.542727042093286,0.685514170552622,0.809488091433112,0.835620451901406,0.71492088038377,0.436651660889837,0.061455315988107,-0.281278259897037,-0.481501840972545,-0.544449443792658,-0.572573626769292,-0.633106441175902,-0.684390380473339,-0.682992483734972,-0.697992734210724,-0.795639690158104,-0.836171382718159,-0.550184013193452,0.115138725622533,0.823072443878524,1.10147468176311,0.751307860927087,0.00580766486265329,-0.644966727891051,-0.784428137282994,-0.34461986238395,0.352719618082439,0.857366523374273,0.955663017030952,0.792813575081005,0.644785731492954,0.614226326103769,0.585680933251362,0.4404332620928,0.217053737906053,0.0203807128619134,-0.142497177543825,-0.344969704279571,-0.597179200319644,-0.80914099466512,-0.899120774325848,-0.877248554890647,-0.801709722494971,-0.680703524278122,-0.44315364481811,-0.027092697371414,0.480086392588032,0.811597421234446,0.71461493963314,0.226911090208334,-0.288725495952739,-0.457043027299282,-0.227988359818046,0.131316913518858,0.348362265821182,0.399916979246036,0.468653249021762,0.688909185094617,0.965802633596346,1.06285506086156,0.847677118211274,0.411510988251789,-0.0310294039056584,-0.305790005051013,-0.377774323210638,-0.367382735164039,-0.448919135326227,-0.661536741645888,-0.849882636831273,-0.863443396029144,-0.760695766462004,-0.691622887301524,-0.599368810343047,-0.227210737724219,0.463388832732552,1.02093490158901,0.889364755271163,0.0938339819992174,-0.672280509255747,-0.769651725231046,-0.265073707989103,0.286154015123089,0.547098064744404,0.648452267046587,0.809452830067789,0.991882388953721,1.00338250814815,0.77383061875346,0.423223861610969,0.112623266945642,-0.103173443221613,-0.268847992159347,-0.416131267790556,-0.524188139360431,-0.596256875078915,-0.686477588432211,-0.814672449833425,-0.932834560483053,-0.990403278850462,-0.928519495690679,-0.619171102481182,0.00275417078974916,0.686180618207495,0.944970203288655,0.550101038784515,-0.160282381047078,-0.597001455461397,-0.492492632604001,-0.0625075846828127,0.335394225699175,0.553107659160588,0.648422167184,0.68757908266588,0.680234823576451,0.653534368935638,0.649993992925575,0.633419565833866,0.493303083461197,0.180432868294438,-0.215351642731976,-0.546706525567359,-0.727514674728577,-0.757671207808382,-0.693574486601871,-0.641609399691692,-0.710257654843831,-0.870812099894469,-0.907567028111366,-0.618454778183861,-0.0583671686121318,0.484169690676694,0.721965002200248,0.547630772875556,0.0743754174179818,-0.411501274894589,-0.599662089229517,-0.365660554150393,0.134614417178833,0.593896745742296,0.796079454032022,0.759708319502511,0.669178177183677,0.675795214288409,0.7591961688052,0.761595247988595,0.547588170701265,0.144385950414963,-0.272277826783353,-0.535256782764737,-0.606196485647816,-0.550912552847581,-0.479861594769923,-0.525043047476023,-0.748285696496264,-1.00724215741641,-1.01333517545922,-0.607284064180777,0.0510725864158554,0.592488677664653,0.727077706925076,0.451733886235949,0.0220775054213524,-0.261052196269549,-0.253740903256126,-0.0152261299748584,0.279569912822296,0.475244221263072,0.547840761696644,0.600917255630734,0.718760893382313,0.843145355030933,0.846307554076144,0.69031244405372,0.435991619692413,0.129825390752862,-0.207321045394985,-0.493019302757705,-0.619938602449633,-0.609931137991872,-0.614517054799892,-0.719110048672001,-0.846385635930907,-0.883231346807465,-0.783910614880928,-0.505695012104941,-0.00202481700748044,0.599038539708509,0.943846892759149,0.767675395412654,0.215660590593628,-0.288748616057355,-0.450934458537203,-0.274079246499704,0.0860322231057136,0.465391451271919,0.722489673965602,0.794079511096209,0.762174591479172,0.763341908712349,0.795879886707435,0.703967763289565,0.391472741057491,-0.0346868105624446,-0.393896243223594,-0.634454501594796,-0.827159150136877,-0.995299831654009,-1.04784113183121,-0.911215864448217,-0.669191855669654,-0.492933522179636,-0.417562459055057,-0.271816506206364,0.0856625093263,0.503942348020398,0.633431615979798,0.314319796139797,-0.199181312245396,-0.455916188622892,-0.234995051705917,0.268726291319438,0.66694273363411,0.73890379714411,0.574623318915519,0.433121779587808,0.497715461442289,0.718584644765402,0.854981267960803,0.699868932722045,0.272069491883386,-0.23381065081469,-0.640719043601268,-0.871335932743213,-0.910364619140511,-0.810801177376567,-0.716979082084063,-0.7629982304668,-0.912596294895887,-0.939786184793372,-0.60588893059973,0.0891384833448017,0.79567002869506,1.03196675678532,0.626575309225965,-0.0653590497813159,-0.472992000252318,-0.34444093362032,0.0774100652749815,0.388620871578197,0.446749753287211,0.433297750859517,0.563221675156739,0.813257051823861,0.954160233563622,0.812376630142311,0.462214634175671,0.144366959203483,-0.00120747213138965,-0.0826010572979833,-0.296778155282417,-0.660105019922706,-0.977526184744471,-1.07432362463631,-0.976506427643604,-0.837945524504965,-0.735616232961253,-0.563777037155708,-0.151259030602757,0.471396352093674,0.950292565140336,0.879775231046392,0.250362025286424,-0.457752673209314,-0.695140835794392,-0.334733992501363,0.268180955816073,0.664764316410729,0.719887297220768,0.63221823579594,0.614259362700626,0.656617479352195,0.63123604706194,0.507384604455418,0.352538944680777,0.177578108566996,-0.0763035487627519,-0.381873233955717,-0.587893108969303,-0.61574416374343,-0.601720778864837,-0.727534158988772,-0.964416549157042,-1.10815667854696,-1.01434036782231,-0.660637525210976,-0.057809138034003,0.676477629382754,1.17841594378336,1.05098705411613,0.331860589125854,-0.427858444172626,-0.683083765412611,-0.396098322542143,0.0607525281963775,0.378016437066619,0.542847229551902,0.673050191139681,0.805081917795394,0.884678032378842,0.846254682507765,0.645956049918038,0.284735057516499,-0.159936581774309,-0.551131328350771,-0.759869693931499,-0.741180636877948,-0.587652480765711,-0.494620339202301,-0.602504582671297,-0.840520893226988,-0.947731568056751,-0.682138248426274,-0.0522865439628096,0.625663680984701,0.935064130261327,0.694471736489743,0.112746195022082,-0.393316247499608,-0.51920784628206,-0.239080285276095,0.239557151295933,0.630431293144307,0.756212978105361,0.671825096313901,0.589746252434066,0.643977890773226,0.746933333042947,0.70258585952537,0.426366908260898,0.0174004771760576,-0.358022153225985,-0.606052952786461,-0.737642462065039,-0.812982707861739,-0.876860994126569,-0.926840312543577,-0.916755739011335,-0.779504532216918,-0.452924742521425,0.0706078060299694,0.651445904655482,0.973077546153082,0.742267559354144,0.030427857013842,-0.644616514416733,-0.724144544968035,-0.139974875095604,0.626597000546286,1.03706370408588,0.978256362693564,0.743118377898286,0.636981794963041,0.684909298974792,0.690215378798446,0.492696399152451,0.122825413594433,-0.270995797805357,-0.576280802523221,-0.769898438060607,-0.872103841188757,-0.907710239502789,-0.911651877432585,-0.925144979864898,-0.933589448980907,-0.805392774456273,-0.37584998271324,0.318232788989889,0.918691064446078,0.989512945890684,0.453383005123229,-0.261177014832733,-0.578730374582387,-0.288404339472899,0.318184502042432,0.781243867624649,0.88629613935448,0.755768245981973,0.621916689875894,0.591650589127604,0.613907484435106,0.582919136873737,0.430087651114309,0.154771449123031,-0.190815448237963,-0.533579123679463,-0.805879830400387,-0.968626959924328,-1.02129647170023,-0.987109445578226,-0.905998133389723,-0.817388065372332,-0.670823022258491,-0.301276319063238,0.33165037189018,0.897784691854964,0.938183115489314,0.418516603886305,-0.180676355389576,-0.404956055151198,-0.252718145302833,0.0106669520037958,0.245953791523061,0.504793903502633,0.821657329192908,1.08355896678694,1.1171510342617,0.869252297189575,0.472427679683701,0.114245955742497,-0.128682669632604,-0.295841508124773,-0.437037852170781,-0.569170437295014,-0.701111768458702,-0.828284818889257,-0.917516919558177,-0.943448930268432,-0.901121518928608,-0.730984193414977,-0.313681005484317,0.33181334443439,0.888611349703094,0.950531162350786,0.440718338119894,-0.263882034425269,-0.659417010732506,-0.528127456272883,-0.0480304063749467,0.425761793568088,0.658090464768477,0.662708627201475,0.603645558052709,0.603774879450618,0.643130716771125,0.615691223915446,0.460079369386678,0.213733773571681,-0.0664360837647638,-0.38786304502279,-0.759155270065705,-1.06721672887277,-1.12961775469754,-0.916283128556751,-0.631465772492147,-0.483569503107156,-0.413304917281797,-0.165916066174685,0.337697602908479,0.79631746481501,0.788604872224811,0.238704740712079,-0.438864844082342,-0.705134348153026,-0.397414011094746,0.1693233878391,0.576330573725864,0.690768291082452,0.666743189967971,0.670968429002517,0.705682926568655,0.667988867616422,0.498979246334349,0.247344312891513,0.00122652279051776,-0.214641820042972,-0.434841128383638,-0.646417921319932,-0.755374177867721,-0.714351938743211,-0.635481673669154,-0.679667397942963,-0.820420366189874,-0.803160226910725,-0.400566294885859,0.30958165462263,0.938719369671234,1.06590627315909,0.59208364674289,-0.118295952077437,-0.50860208205281,-0.327591798426583,0.17508087366519,0.58681074948992,0.767258451708838,0.851871946332827,0.923961008703302,0.880375945584057,0.650138663582076,0.368997690693297,0.205357025575856,0.104186859067018,-0.137350474721019,-0.560550229584592,-0.957155413356529,-1.11618881345281,-1.05247115573055,-0.938853969271114,-0.860440648675454,-0.691914182647939,-0.252478303164503,0.404752577062305,0.907042642720709,0.865200462559245,0.30340305611527,-0.29590507350505,-0.457890686739217,-0.163618486179452,0.247548655327449,0.518403586706845,0.664760889865009,0.793915544124399,0.916496813125665,0.959703465057656,0.856970580269016,0.59788568415374,0.245783458198899,-0.0942477949816316,-0.36425701322849,-0.590402830495568,-0.802405277715851,-0.965675951908804,-1.04131060967656,-1.05840092417665,-1.04495020630846,-0.904994244767222,-0.474013990332203,0.224074912861688,0.831916479550838,0.914736281864709,0.414771738927504,-0.23641369108025,-0.521666838535862,-0.306579709853716,0.126788750394888,0.440508634740362,0.545396943685355,0.561585573264465,0.600682328998815,0.678003696402504,0.76719485909491,0.81290495357357,0.705977293728633,0.355230299969348,-0.192061954937455,-0.743194474377308,-1.08830734611078,-1.14533793390775,-1.00255498300045,-0.833045064812528,-0.764526402882027,-0.789174372836738,-0.741572574938524,-0.407812543457748,0.221702237015251,0.810693820986903,0.926690533063819,0.479129886755547,-0.174054949067823,-0.567587779374749,-0.4969588126554,-0.0734257787732982,0.442243473089625,0.810284013284165,0.927968636014931,0.868594497997909,0.774618752312176,0.682809508720056,0.510034363096424,0.226662423129602,-0.0546115187038822,-0.228040659374142,-0.355603875777432,-0.575683027712234,-0.87452954862858,-1.06501183581225,-1.03244767896068,-0.892660843282498,-0.800767645885809,-0.676468704665233,-0.286152947456719,0.376758367176243,0.934819377797433,0.956988533500572,0.417662337166522,-0.24315683900659,-0.528698748164441,-0.316691629854007,0.124666824930664,0.470790290563735,0.606644414496235,0.620238081348077,0.665900207028584,0.824494763337712,0.992381979383276,0.933434449060897,0.541074055298383,0.00594501312883526,-0.38187308327138,-0.55192081533302,-0.660846990881598,-0.814003154781514,-0.919598432393384,-0.856799316448715,-0.675888166711166,-0.52967072258046,-0.438971636519349,-0.238587991683453,0.186749981629771,0.672234841342328,0.873173120750899,0.601349047743648,0.0131326183037683,-0.510890639646154,-0.627837223414298,-0.253302047134725,0.374367492740189,0.879736991145216,1.05986940705001,0.988742607354121,0.83780086505746,0.693144149442384,0.548400165378742,0.361933449307564,0.0853236646691011,-0.283495636844395,-0.633203814495384,-0.791047284083065,-0.714545090251276,-0.593841480033573,-0.657930160842073,-0.874766571172211,-0.951321983493706,-0.659043507241018,-0.0774554883483581,0.48701733043238,0.738945386970386,0.573401547689015,0.141783960703112,-0.229943272934506,-0.274453098500321,-0.00133311747611994,0.32676939934183,0.466642334254787,0.433979354681131,0.437889807211372,0.604193492979635,0.836044265019664,0.928081196902406,0.73119652497939,0.242649237310893,-0.348929748594555,-0.742049075599363,-0.778676371168442,-0.620887092926247,-0.583609328427488,-0.805041069387536,-1.13751832979788,-1.31004557869965,-1.12243916053776,-0.542575998571663,0.252868365530906,0.907806066042123,1.05976931670184,0.604285029575843,-0.157400852278746,-0.678708365811183,-0.592950601070619,-0.0399912509385724,0.488743803090812,0.66278145828336,0.589031958901014,0.561918793971421,0.685234577881612,0.819607047088335,0.778191594554896,0.479671819129743,-0.00171315687936176,-0.463939912318585,-0.725248742779684,-0.789360892449882,-0.807587946498264,-0.880125817614258,-0.978289608695672,-1.043017808141,-1.02965165897864,-0.83330115639131,-0.321078844802754,0.434652254614321,1.02261694047124,0.982116182267599,0.309045152919081,-0.444068603149384,-0.684257114506424,-0.323712801287685,0.258830142555508,0.670864152245105,0.788804589069597,0.705900746623853,0.597173621412619,0.619004170639404,0.78192673803237,0.895725299412273,0.744506894534518,0.33051130209822,-0.134166176905791,-0.459874036339643,-0.6072052195328,-0.610816865062584,-0.515535695493847,-0.414424545278806,-0.41994071706369,-0.518608414842158,-0.523276318035574,-0.241453431266633,0.320263831141503,0.919075785641949,1.21121293760092,0.978553035017672,0.339762861345679,-0.255292894568818,-0.356800487169615,0.087746288775642,0.688379698689796,0.984246017044837,0.855258633982269,0.573831307247504,0.472312847854932,0.592260782783079,0.686081474656047,0.520171486963575,0.0915069135791925,-0.441649374751949,-0.923103170640553,-1.24889729217307,-1.36003849712961,-1.27415424997245,-1.08018750350036,-0.853915767177672,-0.624922387578344,-0.414828959953841,-0.188488179278258,0.223305787291879,0.941236615858062,1.68186317532588,1.85896301420301,1.17191065506597,-0.340296343012514,-2.42551095369651,-3.69639384971008
