0.950011873214274,1.05274437122827,0.980207659718187,0.831333110053732,0.615869765859729,0.409414062649113,0.401131001442293,0.707177435449963,1.22986684982535,1.72028038436716,1.93190256358302,1.74107688273984,1.1774379303231,0.36549131875078,-0.558540096841867,-1.47907159635441,-2.26753030276509,-2.75188531973929,-2.76959606169929,-2.28787913539244,-1.47362061494795,-0.618230932462911,0.0315189434778628,0.381970814737538,0.46380169658288,0.350778475467844,0.138385758442179,-0.0278858812631543,0.0287883152140582,0.411918628716787,1.04576511714521,1.6927934383351,2.10276625374435,2.15082483404118,1.84338167219415,1.23942959898726,0.40644173465824,-0.565607181980998,-1.5479411488981,-2.37923741411851,-2.88345939220667,-2.91142592611341,-2.42256170828381,-1.55719702777491,-0.604395336742378,0.146820923415623,0.548479917838545,0.607798204321109,0.413841594973265,0.0990398923008634,-0.150272842825117,-0.131051287136972,0.261169348171653,0.940827626869111,1.66417483562941,2.16019933715989,2.25543053353857,1.91935596253759,1.2334386125841,0.328991267546376,-0.664159628156124,-1.63949624002482,-2.50756467910512,-3.17320571569141,-3.51987523655256,-3.43871085331174,-2.91252727777749,-2.08559583963999,-1.2229862356459,-0.569115673195454,-0.23362779078807,-0.192494440912991,-0.350149005158383,-0.569104051559608,-0.671818279838421,-0.48746859754319,0.048101252612058,0.827128344281677,1.6131375188586,2.15765799645945,2.29653852391804,1.98581170029281,1.30098961900679,0.407698329693862,-0.51267566109078,-1.34501831674741,-2.04629057245517,-2.56914550656122,-2.810723752934,-2.66627405777344,-2.13229007621967,-1.34773194439493,-0.532571505916842,0.124953318446993,0.545248862701407,0.749541110206119,0.803911430375961,0.788687582815348,0.804504228433421,0.964095217189362,1.34426991377278,1.92768495658883,2.58045594478184,3.09752417264865,3.30498394360615,3.14861391445542,2.69561000713209,2.05844299191674,1.32238482131417,0.539642613518587,-0.22431549848885,-0.855985239455377,-1.21116006510026,-1.16792791361961,-0.682054262358753,0.168231294248918,1.17331714410567,2.06530818637888,2.65350687428982,2.90579601630177,2.90087975762751,2.73281905119727,2.49276309279907,2.31373966794613,2.35211263966392,2.67184592685186,3.16195548133428,3.59384522584906,3.75791714563078,3.55673037784615,3.01291249084957,2.21802457424514,1.26007013701132,0.179875494740023,-1.01122605450808,-2.27014506005183,-3.47779884631215,-4.49326511425975,-5.28057833424687,-5.90683800768049,-6.43431488200221,-6.85508558739701,-6.93774034738868,-6.31054037778405,-4.80482022776619,-2.56546048146414,-0.497691311775035,0.0580648937705478,-0.529152427863838,-0.364457218000188,0.636814289451316,0.729431678403739,-0.0753123140415253,0.0413785100520346,1.43505708866887,2.81934756517956,3.38659062944077,3.13734823420243,2.44139638718887,1.8616766037752,1.68813558163275,1.80899333398648,1.96860620190286,1.95923066932459,1.72205611879688,1.31823404066602,0.872051695827711,0.502393830773367,0.237863827077965,-0.00197955771363012,-0.289528162215157,-0.381148923973754,0.0455410432179504,0.510773641119464,0.0807217705088538,-1.1744957446043,-2.37252078803465,-3.3615452400785,-4.67447301185955,-6.27039283206653,-7.54653690438494,-8.12271713168595,-7.92305387814929,-7.05919882259239,-5.81799758215817,-4.4676808809939,-3.14188643641681,-1.85210565291254,-0.501078775320842,0.996058256522753,2.59363066616783,4.11901659556994,5.21412811022663,5.46847855601474,4.71819629714775,3.09890966796011,1.4543505704847,1.08063927821038,1.7658095541913,1.86752976135266,1.26848050307531,1.43256826219164,2.26369643961732,2.11359430979135,0.689283330063968,-0.85113573201029,-1.77767897932704,-1.98090297770471,-1.56617595291716,-0.844059180486002,-0.0701669499049875,0.671584004671434,1.38276382634773,2.0979439954186,2.77508037653834,3.27920526671009,3.47650128436794,3.29836517482674,2.77956463438566,2.0604601775391,1.30704582445446,0.611532723072599,-0.0148176058520635,-0.560182529881878,-0.954543914484899,-1.11146449492609,-1.01378835234251,-0.737873834118569,-0.399283488228238,-0.0923750398142429,0.128746246051,0.24545901607749,0.266514930720539,0.21941990957377,0.145175191973225,0.0951115299839477,0.118167878398442,0.234483183868717,0.4137197346711,0.584704743958995,0.679672087388604,0.681218050638506,0.63106576722208,0.591023183132599,0.592667301105133,0.623430689435019,0.649135662229699,0.6308400799232,0.528822265834177,0.330361544122864,0.0900935539118635,-0.0859238972617383,-0.118230643922772,-0.00554437019510384,0.198411730905646,0.423201882941864,0.581302653838351,0.567831112114575,0.308033850622453,-0.181368535230361,-0.779644320902564,-1.30791652255905,-1.60555737027758,-1.60828268808606,-1.38522269498335,-1.09565953980541,-0.893949307639581,-0.86477254339605,-1.01995577128311,-1.31010844181032,-1.62379574969037,-1.81421735035025,-1.77440831002145,-1.50117189249605,-1.08433884018648,-0.643971494000479,-0.284381433627103,-0.0825028370278719,-0.0726894703976806,-0.21625596161929,-0.400095108863507,-0.495467810602663,-0.436050494507528,-0.244872864684034,0.00596507542177231,0.251876407154384,0.456634646947657,0.598635438289971,0.658641371491417,0.626884531496091,0.514600336001312,0.353478816457871,0.185087947067315,0.048497014577881,-0.0267098764453686,-0.0142103644121281,0.115923552331573,0.370382919002145,0.682667609630304,0.920429872109548,0.981664289254786,0.875838704357782,0.687921927497577,0.487242444928416,0.308046809267189,0.194140833136944,0.200656369949656,0.332911747130051,0.510251007247748,0.610377767056019,0.553317652340026,0.350712167238886,0.084685683485309,-0.158248948649775,-0.338531324457572,-0.464787862756421,-0.561021144689783,-0.634701560506082,-0.666203261672056,-0.624585705788249,-0.499393962336514,-0.321432744578566,-0.150172280305523,-0.0356582917038845,0.0106459962629132,0.00766860027375732,-0.0280348232546366,-0.0936496384172243,-0.173826346344995,-0.221630142234646,-0.187435358157752,-0.0677672381434616,0.0820376356740354,0.183935725408425,0.190208703388929,0.112578919241891,0.00256467299566225,-0.0977752061595887,-0.178209137089927,-0.235340479958122,-0.250674807164266,-0.212314450893478,-0.142819977894242,-0.082029864830175,-0.0458896902153302,-0.018421971270992,0.0183739723423077,0.0609781085306606,0.089951924085343,0.0883890548775761,0.0568061641060409,0.0183054173310969,0.00317701445175743,0.0185279757147752,0.0407036110672513,0.0465516292555957,0.0389870958511242,0.0285054745172165,0.00450727540553567,-0.0537714814200009,-0.142573579558308,-0.225099102383568,-0.255323499744899,-0.203521868415888,-0.0697229345814011,0.112572627422768,0.288131874551976,0.404494423031468,0.429282121052504,0.356364267600338,0.214604236042578,0.0686248028031551,-0.0123441837048184,0.00186438727573186,0.0930733000723262,0.220634667953833,0.340555732942482,0.407014965785241,0.383765544620045,0.267114499713388,0.0885616497733933,-0.106926387042823,-0.274084877325088,-0.365807605715517,-0.349662026519358,-0.242366683713469,-0.108935296234748,-0.00702122496238403,0.0601018727196539,0.121567148874149,0.181186132115333,0.203190448905235,0.156869508361684,0.0599761491279567,-0.0292187698842835,-0.0579504421818334,-0.016760608382978,0.0605161717823441,0.128035014222047,0.157300458837836,0.140558687539442,0.0817625188176643,-0.00277118245596354,-0.0833922671489354,-0.130705190210362,-0.128675710705846,-0.0745692898989767,0.0177994483264309,0.108348653804506,0.143883347296692,0.0988996348109431,-0.000538643016568693,-0.100042112781027,-0.158520299892597,-0.166127070461398,-0.136293703507793,-0.0924765454140532,-0.0554049856316723,-0.030027086343607,-0.00549265648557087,0.0247678114772992,0.0472961834860989,0.0440869139302994,0.0211661151620068,0.00531971859535401,0.00803484228649061,0.0102188798006421,-0.00555802814173836,-0.0221892432272859,-0.00459721172638584,0.0567126047128776,0.132179779359547,0.181090023521827,0.18373701162699,0.147179364527032,0.0881916319513365,0.0159871230663934,-0.0698937079505566,-0.170165578077654,-0.277702858278093,-0.376421368664131,-0.443180190882134,-0.449929662002791,-0.372275495249411,-0.209950983341392,-0.00472499234394855,0.170941069604582,0.2542610312962,0.225850073862059,0.111211069146864,-0.0379769857609748,-0.162957548374578,-0.215841849002571,-0.175686537545942,-0.0514785722365731,0.125686983444069,0.303433455673767,0.410395785884744,0.390783778877135,0.252720670028194,0.0645419005072485,-0.105306695516206,-0.227294317364993,-0.293802130030755,-0.29972125977412,-0.253011491126648,-0.176559658560613,-0.083834147240379,0.0279728864697093,0.149489852742,0.242186620843143,0.263060572328914,0.199027264670017,0.0762815448423663,-0.052938662712892,-0.135448893892039,-0.144980418051871,-0.0917065816293464,-0.00557645762474323,0.0829948809194666,0.149314580909155,0.177779923229794,0.163383784223132,0.103611052657657,-0.00180448268136445,-0.129744352608068,-0.226516885626603,-0.247495646873079,-0.203489271554239,-0.148317131521118,-0.116107503691962,-0.0859142856152696,-0.017866373084212,0.0868362255339054,0.179909593931966,0.218216830418205,0.20064903407232,0.147976354407943,0.0747917533598061,0.000692193618210524,-0.0386749419143192,-0.0241568776092222,0.0194376668090784,0.0571490340999483,0.0893854404154008,0.13369638302027,0.174404393718459,0.16546026596842,0.0864446998702116,-0.027125165818034,-0.118688763767761,-0.166240244767347,-0.193871019915307,-0.228478181888378,-0.254940526979988,-0.226012779720681,-0.116235473442478,0.0454179006148252,0.197591793203628,0.288006965782816,0.29246243788982,0.215533786457649,0.0895314745416988,-0.0374249863910609,-0.12730473525996,-0.162770000405003,-0.131017787547674,-0.0214455289219215,0.139986085400668,0.273950971697344,0.300320460838619,0.210148641570477,0.0672169095896934,-0.0572576363356347,-0.131939582302375,-0.156681698856919,-0.140438467213365,-0.101574581225077,-0.0721231872330853,-0.081475853844958,-0.131692744846089,-0.192289529889137,-0.221176991146268,-0.193440624520395,-0.115995782823929,-0.0200877193954485,0.0596923886667301,0.102906138796476,0.106694670163474,0.0793423266028509,0.0342837956307706,-0.0114966770266843,-0.0380737136719838,-0.0284018178300628,0.0194289056333372,0.085798178797801,0.141945742310602,0.169671285931362,0.1646501321214,0.125428344973295,0.051436757949217,-0.046248651539496,-0.143378421627238,-0.221240382939343,-0.284835158231742,-0.353584923889785,-0.430367995821378,-0.484950445242839,-0.472487992440409,-0.367412172812033,-0.181263234967132,0.0450102679254911,0.261760579736169,0.426061369819155,0.505463422236817,0.482523522891103,0.36834543205555,0.210486401167833,0.0814223996320413,0.0511684535071277,0.148938838346453,0.331341180768093,0.49938636971588,0.567413788183406,0.511592666068257,0.352042948572669,0.120962498523498,-0.134889913119971,-0.355513376812643,-0.505074470873139,-0.596531955291436,-0.660589577179818,-0.699714354691278,-0.685260597528796,-0.592130458048992,-0.426028304899649,-0.219618148522703,-0.00783435808416274,0.190593210767779,0.362202526408301,0.471041278514599,0.467539015415815,0.353812297399702,0.224787373725858,0.197682081989971,0.293957538784353,0.430937200521792,0.535845272970923,0.616159219080176,0.691663648614529,0.706013783517313,0.56174043968218,0.235915994066526,-0.180957288511402,-0.571427044086906,-0.887748138394424,-1.14219745422926,-1.32044191595499,-1.34422453897574,-1.14016910473254,-0.734963683272463,-0.266687681910916,0.101159336213326,0.280943778586245,0.293486846581436,0.220114923908016,0.137595336527682,0.101513772922627,0.164898881764219,0.368415129366948,0.694614495764118,1.04946785841861,1.30726665967548,1.37943993584329,1.2512087614356,0.970441816412207,0.607660398519648,0.218188603652606,-0.167965552142283,-0.53260841881172,-0.86028719430483,-1.13723345409062,-1.33395654571965,-1.38506956237075,-1.22222830376875,-0.857409594515149,-0.418708681408597,-0.0701097725391717,0.110952216827238,0.16352666033395,0.162026456758658,0.141040277964859,0.110501671374827,0.10851486270376,0.200750879840097,0.421929595033588,0.724631204789729,0.989912944686933,1.10302400686304,1.03486941406398,0.844522841383516,0.595884521416891,0.291255964080932,-0.0979446027297442,-0.556781824662465,-1.00630406029173,-1.34328862330577,-1.48434001144566,-1.39245980747397,-1.09214142198049,-0.664987162856344,-0.222861142503905,0.12624990167467,0.311326228458036,0.324040116387534,0.217893657615587,0.0788620403327367,-0.00510643468804753,0.0354950871864347,0.225864328640325,0.522795736959592,0.828057715763545,1.04399247362084,1.12332457269299,1.06900519901057,0.899873585952559,0.633939222688743,0.302442635964855,-0.0450677217437819,-0.366724356914671,-0.652142542147363,-0.909394594995623,-1.12711956059409,-1.25015373345306,-1.19980366232939,-0.93968308877477,-0.534120653711566,-0.125334200553436,0.165044739160265,0.306229603557512,0.330814443008799,0.269339031663255,0.139883496319952,-0.0132095275107014,-0.106898095745166,-0.0624123355256551,0.138796568555318,0.436193063215342,0.720734890235077,0.891413527087825,0.897975730559779,0.74472182767492,0.468737082916082,0.121362302543853,-0.243318215680917,-0.582542304197685,-0.86953668127235,-1.0746103839179,-1.146000325125,-1.02937903736695,-0.721487345110212,-0.301635540190005,0.103418538588423,0.393113324194405,0.533286679767569,0.53683768210359,0.429132755508276,0.243051018877299,0.035474638305009,-0.110922707904368,-0.117502979360292,0.0443268615517139,0.323675569160983,0.604322924072128,0.762102984098453,0.731236905217774,0.533137455532652,0.248103961655878,-0.0421514958320159,-0.290842078832142,-0.479707470581969,-0.596244450328471,-0.630425692534413,-0.590132893892676,-0.505725052930411,-0.410150889310412,-0.313792366727851,-0.200357328973573,-0.0494867806134663,0.132826808488463,0.30469763037984,0.413569497634552,0.4356386840637,0.389358757248879,0.312006172727691,0.234643314616475,0.18402589637459,0.188363759673844,0.256489797995546,0.353921225983546,0.419874463676364,0.414021212273426,0.337940023346479,0.212646272202755,0.0500905085258265,-0.148346764775887,-0.375998276839289,-0.608871549113912,-0.802068068139739,-0.89768024340801,-0.850232239218846,-0.656366515794367,-0.36191248535645,-0.0398214313307961,0.24219506963823,0.441762518861908,0.53922343775367,0.526855732099415,0.418653396314972,0.273718764096825,0.18414343292337,0.214301183315475,0.352038842358045,0.52600929398,0.664250782113192,0.729239211309852,0.705220292228141,0.572368451593662,0.310270817705898,-0.072591295456287,-0.522830938529187,-0.957107894130794,-1.2863772432389,-1.43392078491137,-1.35774990634345,-1.07502921244084,-0.661025308687504,-0.217141599271803,0.160581325511882,0.395771774820107,0.448353075563142,0.341132408231182,0.164941922118647,0.0370685382307968,0.0395332076537606,0.18878550947037,0.448558680138884,0.750623919344924,1.00458216939079,1.12131502257181,1.05814909286485,0.839878345733344,0.521454651135982,0.134772562112963,-0.311928601900692,-0.784722335525214,-1.19761692350329,-1.45055519618003,-1.48575159310028,-1.3026494390715,-0.94308797154743,-0.486743325531836,-0.0442121499425326,0.281123080469364,0.435375926921093,0.420476781452714,0.280995555808938,0.102174266136783,-0.000453541630865956,0.0695435222882751,0.327285288701186,0.690720587794628,1.02740004915587,1.22303533277991,1.22752563315199,1.06272315600422,0.792776587962611,0.47485036698218,0.129107986258702,-0.247945714086404,-0.646576515613082,-1.02072765929669,-1.29718320722761,-1.40857450890029,-1.32522224921888,-1.06825746337429,-0.706281018950293,-0.336558117451734,-0.0472500507930717,0.117508648880836,0.159512668139798,0.108527909629686,0.0177871966532718,-0.0369841105710029,0.0141101467339876,0.192527764668901,0.455217617051726,0.714937058663449,0.879647064127975,0.898835066740493,0.794766542471141,0.639093253295644,0.479417228582997,0.294505772375392,0.0347103606942577,-0.306588221326216,-0.677575519022425,-1.00354286867195,-1.20942074134481,-1.22358185976302,-1.00646608370117,-0.596595538205781,-0.114040010384587,0.297213741076814,0.537512446052635,0.580214474082871,0.461309017943714,0.257527706832332,0.0658481329648356,-0.0217948432716428,0.0504164407956811,0.279057985781126,0.597043768382296,0.889275425292988,1.03386172444494,0.963537276979891,0.703434899049437,0.342847748964059,-0.0320920994217505,-0.377016182755788,-0.679705560342349,-0.936344572587028,-1.13466210607641,-1.24081070911112,-1.20456087834516,-1.00157095047114,-0.67734275074983,-0.3281838241173,-0.029317272476484,0.200089874614619,0.358867997714795,0.426026791488804,0.385283960998636,0.27178842433232,0.173130187798668,0.179310940445876,0.323778394483491,0.560330713077054,0.797672635249984,0.96012570008409,1.01117549332179,0.93359397149531,0.724654215351349,0.418582691188382,0.0770416438920009,-0.260839214844223,-0.593204301382512,-0.909665763806462,-1.16141781381469,-1.29238113631402,-1.27375713475235,-1.09665380896294,-0.767641357428134,-0.341256240150928,0.0693482764276236,0.3552713677699,0.485476907431997,0.499861894953375,0.445214995216667,0.351646457677939,0.267151090303997,0.271885755620212,0.42798827790644,0.717735409883776,1.03997527800946,1.26739785821707,1.31337065921253,1.16293563708987,0.858167124328117,0.459971010962962,0.018348706414845,-0.434868976841565,-0.874872484829238,-1.25757542552764,-1.49750100122413,-1.49751181281465,-1.23510062878804,-0.814177544852546,-0.402255705393308,-0.113423533803031,0.0349862098557891,0.0726842024725689,0.0280777608739034,-0.0631472151054681,-0.134537904263462,-0.100469091361508,0.100270635810867,0.457403113587137,0.871165824167018,1.19267413112937,1.3079716498566,1.1969080250782,0.91723977079424,0.543791636261926,0.129833879433451,-0.286137611895408,-0.663103581332372,-0.961038985283629,-1.14744519130332,-1.18471409668306,-1.03248464941075,-0.701084469833269,-0.296870933141643,0.0313014038861965,0.20560624880768,0.25495641831906,0.24177008596466,0.194927359142573,0.127127052713874,0.0829843269279489,0.137154325445251,0.336410231808359,0.643345027249289,0.942988832120488,1.11577526116582,1.10847596536899,0.939498124208997,0.654383053263862,0.289822639568694,-0.129599746151772,-0.576100795619083,-1.00401711456222,-1.34937644441905,-1.54425638951281,-1.53204471207165,-1.28410802720677,-0.834521362399187,-0.308458031410926,0.122468169167227,0.354294447500782,0.41312771248781,0.382805841093072,0.298852018777194,0.161651517756155,0.032436467050682,0.0356301749461506,0.23606744574021,0.55859465064553,0.854816232760725,1.01844462744483,1.02014837652219,0.870393954821776,0.591926020280916,0.22250385049507,-0.193282655323895,-0.629161770251377,-1.06992839417704,-1.46636943058379,-1.72665593146285,-1.77648447642861,-1.61263825656045,-1.2892848479763,-0.879180611741661,-0.462298451033012,-0.122119252923088,0.0828402108520213,0.150978919281898,0.132360233435191,0.0883918848042817,0.0601794501342117,0.0747384231733483,0.167430145195701,0.375456647957347,0.690472802222158,1.01853277705723,1.21455806323779,1.18596487459128,0.961361682541524,0.641587701300572,0.293234367479572,-0.0848460086959316,-0.497071799358872,-0.891831937971969,-1.18576688135863,-1.32589444683269,-1.30383092338094,-1.12402058580518,-0.796423648125936,-0.370522169472384,0.0523865429760639,0.369297562439404,0.541055761565377,0.600463349871129,0.6003298567764,0.574116239034673,0.558095588653313,0.624019980380297,0.841595071860154,1.19213966032234,1.54551387620214,1.75114064716234,1.75606953162198,1.62579381558478,1.454460492824,1.2762869265922,1.07084635187513,0.822784089434219,0.544154071960021,0.253454651142104,-0.0307727164219644,-0.272818142642256,-0.418314747324173,-0.416110464923303,-0.239091173988748,0.0971205259110853,0.51371106804919,0.882145393870226,1.08879544429217,1.0969236668096,0.950533873670448,0.733752027304704,0.52976370740247,0.395010547633685,0.342973337095796,0.331096138817277,0.26662469424775,0.0488188154837679,-0.40043749575554,-1.14969738648675,-2.20856407051642,-3.45266829671287,-4.63281448460094,-5.33867696962418,-5.1548769952387,-3.97098869616027,-2.01980150265786,-0.189554028966453,0.289269023580312,-0.319834016211657,-0.407006978675151,0.165221372265264,0.049267141990364,-0.600060528438374,-0.186040242025835,1.51254342918167,3.25013997531407,4.18159016003671,4.1533490974552,3.34122576419776,2.16906597226701,1.00217457984842,0.0314934287829066,-0.668049927970222,-1.15023232888607,-1.50941213910006,-1.80101741506238,-2.05681765489947,-2.30002765568962,-2.5424293076054,-2.77523537150375,-2.95181409003013,-2.9761170509299,-2.72015110563706,-2.08939207064131,-1.12190978623629,-0.0352107823228537,0.863675872568781,1.35409230585647,1.39969361956645,1.09534743788012,0.575684121271931,0.00464325899670192,-0.404833335565359,-0.458567882347019,-0.109307355787114,0.496589750686014,1.10668024020169,1.49756318506553,1.55993634136486,1.31297470831732,0.873892767994344,0.405344926959817,0.0568800964245251,-0.0804534722619603,0.00734519701040165,0.268863867817435,0.625261893616236,1.0135411054248,1.40116827072955,1.76400713422639,2.06566619215975,2.27587804596028,2.40263069755579,2.48482234474366,2.5509420525313,2.59814924205409,2.60974876298242,2.57660626831992,2.49428692684796,2.33997349092529,2.06306057189267,1.61480998715229,0.970659661044358,0.107596237664107,-0.971662578014844,-2.18184395663987,-3.35691484371558,-4.20548354368669,-4.39567531239767,-3.778835516352,-2.45033243571072,-1.05872070160626,-0.636117748082484,-1.12798702929622,-1.31408622900507,-0.949699412566338,-1.0030779039006,-1.44622665155919,-1.08173545055992,0.426966614063824,2.30392040614626,3.87188528205457,4.77136067267898,4.85816256540962,4.32073875870126,3.47096146600702,2.54447691393521,1.66372947692882,0.852061594611741,0.146591873757865,-0.367423346901315,-0.651006918884603,-0.777458039595388,-0.90368018536526,-1.17296478450916,-1.62104155200439,-2.16361117695115,-2.65602142447172,-2.95101975730227,-2.94361915348159,-2.63133231239716,-2.14252112988028,-1.66498429924004,-1.32840195110514,-1.15961020050545,-1.1244797192019,-1.17033449737793,-1.22795744222974,-1.21961215737328,-1.10574801376791,-0.926906889922621,-0.781734840663778,-0.748374842066065,-0.82459328189388,-0.947097828352111,-1.06014998719178,-1.14982630731217,-1.21930306156537,-1.26508938717791,-1.29538820225,-1.34734608119549,-1.45101837468504,-1.56998619663218,-1.5964923663348,-1.42149949254607,-1.01511345085219,-0.450005960223623,0.133012031847187,0.584926553364411,0.817277135678873,0.852690819401944,0.808829320126204,0.814871366240005,0.930238341601457,1.12454206189278,1.31487836763795,1.42753103356245,1.44753465789112,1.41608355996786,1.37216497282095,1.30490388467187,1.18311227101563,1.02617776451871,0.913159448541562,0.903436457008858,0.960191835962758,0.969310651359899,0.840823581114142,0.595599311790505,0.35442381948885,0.239129290362155,0.279176650642944,0.40781167985524,0.53937130528152,0.642135870769767,0.734670137776248,0.820459429878305,0.846843755091253,0.747216432583317,0.524093989769013,0.276615101955691,0.134973334062209,0.163573837758885,0.323889627723377,0.522267577464385,0.683642955958254,0.781579106410114,0.818966615610352,0.804282466625475,0.750358425285511,0.678643231167555,0.60912866776994,0.549107347573744,0.499309307697694,0.463118332861812,0.438543999629357,0.409915212764917,0.364827534787951,0.316455736844969,0.289743126959335,0.280525336326121,0.246478659402516,0.150979850156506,0.00388380666261733,-0.151444175141927,-0.278394457242894,-0.365301259622131,-0.419207909035256,-0.454635173928761,-0.481470957881146,-0.497431639980461,-0.496040813758146,-0.482883107759917,-0.478897134873322,-0.502449329058131,-0.546735929550451,-0.580240320934706,-0.575247139867322,-0.532937776947968,-0.477320751332432,-0.430798748948669,-0.399872952088881,-0.378541467126746,-0.360341575382496,-0.348424293001342,-0.354186913020477,-0.384348283518365,-0.430919936561157,-0.475872707546009,-0.50423347974445,-0.513381627533185,-0.514859647789323,-0.52693938835946,-0.557231262552574,-0.591015564406874,-0.605569365150892,-0.597416246882204,-0.583931977158922,-0.573812644670834,-0.54866260552652,-0.484398500766492,-0.383487375612892,-0.273003652237589,-0.172241146869362,-0.0749571198358346,0.0327058513555938,0.146331522309524,0.240396379913387,0.28571704411449,0.268586814574999,0.200302941053908,0.110733079560709,0.0287493452864384,-0.0319009508962673,-0.0694908287925479,-0.0866638178337488,-0.0914648284909753,-0.100535587189556,-0.135428061789103,-0.21374236082337,-0.338273604366386,-0.487931079107315,-0.620281682200387,-0.691040452033699,-0.679684047665866,-0.60100305390045,-0.490166863995371,-0.371951945301678,-0.244289584850679,-0.0923437137044405,0.0879073031494882,0.284809632062413,0.480903223735035,0.655584251711248,0.777344058205847,0.802401574115313,0.695068109336524,0.465832015200567,0.192413861299973,-0.0167225921652756,-0.0988314579336404,-0.0738815885398645,-0.00303668129194786,0.069125602644279,0.119181489803636,0.119625731017924,0.043446861895121,-0.104675013207182,-0.274690976863781,-0.390280478733543,-0.386738150883191,-0.248121654773375,-0.0170054840019282,0.2396214704899,0.482452751361155,0.719483223788971,0.976682460718937,1.25779382804816,1.53666047125933,1.77588630515768,1.93542501485551,1.96820186360486,1.83373841356916,1.53200179404979,1.11977349068808,0.690102557663389,0.336239902037625,0.122020877877781,0.0602512872381125,0.103715481033359,0.164748976683846,0.162348534518198,0.0638118007670131,-0.110432964414799,-0.308314757878534,-0.460404459233605,-0.484870286194048,-0.31326290058263,0.0576643037438398,0.531922219102094,0.94293668324446,1.13344253265215,1.02280117357973,0.611571398153985,-0.0573606874308405,-0.918590528607288,-1.86038680927548,-2.70111958324311,-3.22106475839731,-3.25423824919841,-2.79381931129656,-2.0378632765998,-1.30722736869891,-0.856564634866823,-0.736457432602781,-0.844948331801242,-1.0732059046643,-1.32732737387404,-1.4305406341184,-1.14134084558427,-0.356653736045818,0.745568128942722,1.81723085034571,2.56806273996451,2.87532595888565,2.74800341651232,2.26680217670586,1.55736659506258,0.766808720342969,0.0305727830414065,-0.542557594470305,-0.858794189145832,-0.835679542423089,-0.438947545361785,0.255921678646174,1.03947878121197,1.64021833390144,1.87044947342551,1.72160304712003,1.30785786869476,0.731363186088357,0.0494692276289372,-0.619132036446881,-1.04415852422906,-1.05332758239336,-0.760358055957605,-0.52564711471185,-0.641183130581603,-1.10952808170799,-1.74365003148486,-2.37791490260887,-2.91528371589864,-3.24962082246495,-3.25362596240643,-2.86152456025551,-2.13223241762209,-1.23043379727021,-0.36044811221708,0.303488758253651,0.678602618976086,0.80814833368573,0.83124798427111,0.88551987894999,1.01587536029937,1.17586088153499,1.30782073159678,1.39305242156693,1.41810446003037,1.33466502481014,1.0960116879281,0.729803685807531,0.347416467470509,0.0692764041366138,-0.0571511506094383,-0.0682455878823586,-0.0250604483610716,0.0455058703777434,0.152784978731151,0.305241645568471,0.489862762913383,0.685191532243256,0.875879533887366,1.04390094554026,1.15280866850704,1.15406193661839,1.01740775224661,0.760435475026299,0.452802823629708,0.188499603452363,0.0392168438386425,0.0189644272077398,0.0889647669643472,0.194541542416276,0.288508050995263,0.322448588050681,0.247127095708885,0.0501073247263117,-0.216056991034299,-0.464436296156931,-0.629108421207724,-0.683165957334637,-0.623896876847547,-0.467316299253034,-0.252968601542653,-0.0333165045917193,0.148494171834795,0.27131330433199,0.337697855464347,0.369162164452525,0.3871803148575,0.387601590977398,0.341338847618349,0.229400714046842,0.0718351272725982,-0.082782068577073,-0.190783384970142,-0.237631344412044,-0.24195370471114,-0.239231880885198,-0.252937471199008,-0.281650409027164,-0.321333014753144,-0.390939659355868,-0.514504403856878,-0.674038794894019,-0.800824867026764,-0.831263859994724,-0.765496771248914,-0.656376346480286,-0.545946165613292,-0.432138867727318,-0.295458580677675,-0.130517252201083,0.0592223644827351,0.273273749327237,0.499098901222387,0.693280148963154,0.793164963453919,0.751685530679601,0.567366133092669,0.293136583753683,0.0158678540269173,-0.188320473101994,-0.289884996675427,-0.301820904644748,-0.252788826801412,-0.178572468450365,-0.132032800379057,-0.172423708586369,-0.322795027846284,-0.537741195524736,-0.723956956316422,-0.801458897016663,-0.75181767861479,-0.615521638479531,-0.448903195745965,-0.280676301338335,-0.100224074950758,0.118665667399301,0.382511508415567,0.663782011607758,0.915988841693008,1.09227047201179,1.14718494077423,1.04261234174537,0.780509116257984,0.431244679087145,0.107904031928753,-0.100877548501103,-0.17462636120929,-0.150281071418392,-0.0883935487813567,-0.0523866850166549,-0.097350374681852,-0.24981136048944,-0.485175436110186,-0.729933009757058,-0.898876720060277,-0.942518920287235,-0.866868628655465,-0.712724921822342,-0.518897231151354,-0.301873878517054,-0.0597035393934094,0.210928231094902,0.493015915048229,0.735545063364052,0.870161244254654,0.857046977643831,0.716829731173276,0.514724791526265,0.320941646395099,0.188529492852071,0.146889137410381,0.19017745124743,0.271244373292341,0.321928824735942,0.288085222400652,0.152904053337458,-0.0582626915034855,-0.287933299232695,-0.473007774993371,-0.577701082917687,-0.604387414043686,-0.572784814603166,-0.49871811130207,-0.397200407270656,-0.286710955897341,-0.171549919650465,-0.0309546862060298,0.154733814688548,0.369583851637205,0.561775788228345,0.670841574178862,0.655277636825037,0.516837891461656,0.315651863321711,0.146428953753863,0.0727186552442153,0.0812321708432664,0.114734019022082,0.143292617107295,0.175360821532238,0.198852577062245,0.155695561858488,0.00514947447077498,-0.211973396875495,-0.404171656668679,-0.513556935043111,-0.547919315658741,-0.541779257901824,-0.51102844697282,-0.447490450760288,-0.344739877750175,-0.218364756013309,-0.0920999968407247,0.0328401551301821,0.175126400147466,0.332250400995087,0.459252877230419,0.500791815575813,0.437489410880375,0.299310288749924,0.146115557503194,0.0372144064986007,0.00311447821853453,0.0343275778341239,0.099903421280294,0.175076948264761,0.239354169199841,0.253433516883687,0.168828751488528,-0.0217284668505506,-0.257573303870003,-0.447048989029958,-0.525222799972568,-0.47867230899425,-0.339387752230285,-0.169208519784696,-0.0331249672122161,0.0359737074375272,0.0520442527949572,0.0522358509793811,0.0595534991616731,0.0707581505253998,0.076196956785848,0.0798468317682231,0.0907653627371355,0.101129122857446,0.089076464007276,0.0467916162139892,-0.00526809254346703,-0.0352877196051719,-0.0257437381873264,0.0129574192006586,0.0454143147788403,0.0343353713465406,-0.0259496414057794,-0.0993932955046251,-0.140161158531799,-0.134713742396562,-0.106418390398012,-0.0807943904977366,-0.0572796211686718,-0.021814034613974,0.0196530511713308,0.0344381969794052,-0.0018458027631942,-0.0672542889317682,-0.100760956716552,-0.0540444673850057,0.0643932226877995,0.197082630366753,0.284782169078229,0.303829208029633,0.265833451368091,0.194481635036782,0.108173125311312,0.0215333727746246,-0.043038871270403,-0.0575066177803087,-0.0152543225410526,0.0480981979159682,0.0794919843846552,0.0548193111733821,-0.0155352755714911,-0.119025370989839,-0.24770348372555,-0.372239995205818,-0.444905994066746,-0.443860208539389,-0.392685398600306,-0.323986315349537,-0.242284707440747,-0.135049819578414,-0.00351097739539235,0.134574790411719,0.263052561202192,0.368608728894631,0.425905400984131,0.405397487690574,0.310989826427575,0.197169855744534,0.128309402166892,0.120807132357129,0.138843084707943,0.146514867847841,0.145685273633844,0.151900655854116,0.147597531673256,0.0835070763518164,-0.0659552606765861,-0.261034209489768,-0.422570123861801,-0.498102458228785,-0.495038267245813,-0.451983178903428,-0.392341370117961,-0.312520335411559,-0.202364215971161,-0.0618796563443971,0.0992094238442571,0.264760223232192,0.410393990430667,0.504719474269469,0.518775187626341,0.440202661469845,0.288668003907211,0.12154829288588,0.00915542161887619,-0.013810177028338,0.0302342632133929,0.0959355250203758,0.156612127812488,0.196568998382984,0.180571981040437,0.0669506138371571,-0.138740443352336,-0.36178174394352,-0.507678286293146,-0.535993265169997,-0.480674973871245,-0.400024411641049,-0.320317381827792,-0.233881623191795,-0.132633071919837,-0.0214800283394378,0.0951360416920614,0.219609528079916,0.348452659043196,0.458740858726954,0.511438498979482,0.475543232538451,0.3581667297557,0.208900656457115,0.0848951653561927,0.0114052596621632,-0.0180581364555596,-0.0135053267723353,0.0185210193506994,0.0548346511155763,0.0534538570664498,-0.0144194829227966,-0.138263466761761,-0.278263689702559,-0.393379543720266,-0.460426380688316,-0.478884061850019,-0.461735614687495,-0.416236322846713,-0.336993717606942,-0.224876362411511,-0.102564411818317,0.00448849017635361,0.0970240690769017,0.194584783880484,0.299057720994352,0.380192665947493,0.40210118607468,0.355735011341817,0.26288018669582,0.157885129222521,0.0704899955520301,0.0179995979508881,0.00430440567081294,0.0228742320846532,0.0580892590670011,0.084945669458256,0.0781670503585105,0.0294785294701343,-0.04930266762281,-0.143458556255799,-0.243961535843936,-0.3307654974626,-0.364176597626883,-0.31748331741504,-0.21569374374082,-0.117673687231659,-0.05545433930972,-0.0115994154943086,0.0400001615918662,0.0943134020852515,0.125622376929258,0.121466820815738,0.0974720265092141,0.0856856192739524,0.107345367983134,0.149911036854145,0.177239095752298,0.169919291553031,0.144236976878961,0.122031140959298,0.0982700725162888,0.0559805971052185,0.002780378603494,-0.0276098117196785,-0.0115740350718932,0.0383799296421317,0.0891143758672619,0.121209906294983,0.1362248559932,0.13123107976832,0.0862874544845179,-0.00855142275676821,-0.125534554954688,-0.2156226274777,-0.248697658379872,-0.224734686229853,-0.150750708079818,-0.0277058889068394,0.132959750183983,0.298084574005999,0.433351881887296,0.523342112825319,0.555860360825769,0.502177112781458,0.342810944678213,0.113419022078012,-0.101254625347451,-0.23146263533339,-0.269761359927881,-0.252093054875087,-0.212714842605671,-0.174069516533962,-0.164123801940044,-0.212179106513437,-0.322893106082638,-0.471885462921147,-0.625535595787321,-0.747964634142014,-0.798178155097547,-0.750147846974908,-0.617746678014618,-0.438981805539603,-0.236853792082031,-0.0118044225855469,0.23694152407445,0.503650292149372,0.778808068355578,1.03299524823863,1.20259882991459,1.21934730300488,1.06510379491857,0.792050570329922,0.488793628478994,0.227247526078339,0.0348844156691931,-0.0897899562637786,-0.14606030186815,-0.132957208469566,-0.0840111084320626,-0.0743914977659861,-0.170945509569957,-0.376387154372228,-0.626529969987971,-0.836627462602352,-0.9527360653842,-0.970055118490255,-0.908662671245447,-0.779188062580718,-0.582782326286343,-0.335461207221732,-0.0666649521967958,0.207999576658588,0.487437793763518,0.749437054591694,0.930904136448933,0.957831520652952,0.801469930198313,0.512638388424819,0.198746801789784,-0.0461644992210768,-0.192715131938997,-0.257716577204632,-0.255328744665208,-0.192304186684365,-0.102242756123886,-0.0511395079030319,-0.0965846095115322,-0.248153888761791,-0.461521920873559,-0.660572917333682,-0.776740069129391,-0.785755861103916,-0.708194584991637,-0.572821882543214,-0.387782208448281,-0.148741740403716,0.136975648011186,0.441452039223742,0.727563789604659,0.964573756994947,1.12921714175407,1.1930707426174,1.12284744306661,0.910529079436186,0.604601875066522,0.295931729217349,0.0599661913037979,-0.0842259365579078,-0.154163350892863,-0.161631142771535,-0.115539677402556,-0.0603188432886798,-0.0738651058765896,-0.204927668319052,-0.423216315266724,-0.643872551864114,-0.795837124514341,-0.861165688030313,-0.857691044560002,-0.799728763685526,-0.684381790385778,-0.511323923245948,-0.300752411970123,-0.0806563220528877,0.137839849497794,0.358597754676083,0.573903353613407,0.75388190545026,0.866060831855991,0.891143823398489,0.816484368701274,0.639987870086974,0.401407886236067,0.191111142195969,0.0951730005399532,0.128584278743746,0.236896848944669,0.353475987644182,0.428682273532269,0.411428383595421,0.251105632517099,-0.0528306133006963,-0.423153553962719,-0.748220007752464,-0.943715968134569,-0.972655389080663,-0.843001862225136,-0.613357014740904,-0.380247201139878,-0.226610268320321,-0.175474820134295,-0.196351027383132,-0.245560294679487,-0.289456382218474,-0.300235347412412,-0.255063022163088,-0.15000946791718,-0.00324989602783423,0.164200735613554,0.342617121191012,0.523118068523568,0.685145570108034,0.805080353748666,0.868916298872954,0.864114945172675,0.767930644893709,0.568522660018468,0.305208807002032,0.0667456216763083,-0.0703172686975317,-0.0987111706084232,-0.0708175761001214,-0.0429413994027158,-0.0389751613944273,-0.0616026189340227,-0.121616744008477,-0.239416580532559,-0.41154049575271,-0.588570686766622,-0.704212892521734,-0.727113100152066,-0.675716506808347,-0.587511439430665,-0.486212710238677,-0.375952551070978,-0.250868674154331,-0.102424231875373,0.0737865948658343,0.268013701365406,0.455210568113609,0.610784228972418,0.723976305117943,0.786190353636299,0.770129228195582,0.64113873227494,0.403622812477169,0.126197180916144,-0.0980510119407469,-0.216916812349282,-0.236183961865988,-0.185460912260322,-0.0957338633627133,-0.0120485512133786,0.00400539820513774,-0.0888355904190409,-0.272985310093427,-0.480967892066196,-0.643602765301157,-0.724764168873947,-0.716915299218247,-0.625126644210876,-0.466969590452882,-0.274432141937197,-0.0791025062568378,0.105863037149314,0.28569862901964,0.467369592353709,0.642965412057938,0.786942215197238,0.867788493466761,0.861324857962077,0.756872170962668,0.562986228297347,0.315629365189535,0.0731908236692924,-0.109495493433388,-0.20566409654488,-0.218714879393818,-0.176034474571751,-0.129023811225275,-0.136401988293343,-0.220574037465725,-0.347706667384426,-0.469358623804611,-0.571760273777293,-0.662763159335523,-0.723727327478667,-0.707842155907631,-0.594075164012954,-0.420460307447598,-0.244416031254029,-0.077901151579885,0.115258141165628,0.355264371840519,0.603282015612981,0.791781654594657,0.875196639001688,0.83938052948967,0.691845479271068,0.472397367096085,0.255348891019463,0.105077527633428,0.027840914337721,-0.0121427392313392,-0.034215427697169,-0.0265769453394354,0.00491506973514736,0.00306248798505209,-0.0957477981800039,-0.28524316212332,-0.482383565344894,-0.605181499010662,-0.63835214674257,-0.612550037637457,-0.545195194408369,-0.428758531741423,-0.265627660805722,-0.0853110704082668,0.0797686756620861,0.222033491426428,0.352845994178909,0.472424191292833,0.555363064785501,0.570833614912249,0.51345608027087,0.410961133922256,0.303053965800871,0.212839952456139,0.138080901511834,0.0721984919857477,0.0271790271397173,0.0184543760695627,0.0265507413939334,-2.40082867088631e-05,-0.0881943549061944,-0.204307041636692,-0.291611419647104,-0.331916788860835,-0.352983106859414,-0.379942712338372,-0.397518732241089,-0.369508378244533,-0.288047370487864,-0.18643043016442,-0.0959932392683991,-0.00612938222681569,0.113363524311917,0.256337210220154,0.368623331258183,0.396294034044151,0.33406822101349,0.226690332656297,0.132578169686894,0.0839162057779494,0.0730722066785171,0.0751436531440398,0.0811517818360391,0.102869347247601,0.143929368265414,0.173287772479946,0.140028308732348,0.0262909605487572,-0.119918722477621,-0.224789570043335,-0.262896506612746,-0.26993297586789,-0.282633111326956,-0.297962947475593,-0.297640588640945,-0.277333583208016,-0.236832656335593,-0.170653964619477,-0.0840058387861852,0.00427162250063333,0.0855947325887699,0.167235361566988,0.242960222421849,0.277546947394498,0.23862542318688,0.138314889025914,0.0310835141136382,-0.0298126471329849,-0.0291453474768541,0.0117195020264922,0.0612254120832283,0.0989051592909718,0.118719440414379,0.120706708037351,0.101554215515368,0.0532551340030075,-0.0257854467387785,-0.117353722774369,-0.18829737343509,-0.216260192884833,-0.207808066805611,-0.185345594688303,-0.161353132591487,-0.133325286817165,-0.0966495887724449,-0.0499662945772721,0.00670629255068894,0.0653746878267457,0.106298279811905,0.116985577037999,0.114157780847107,0.129648888420842,0.167621930189115,0.188622779298012,0.15110480177798,0.0676849594726204,0.00368327776791752,0.00820979414928306,0.0579213903020639,0.0878202751539686,0.0709295121147379,0.0408172439387434,0.0311980146759895,0.0216598427830305,-0.0354766437503058,-0.147070980534239,-0.262110820307712,-0.324857925598047,-0.327358884754663,-0.301729502775844,-0.275242820492907,-0.247523342701881,-0.206183195695951,-0.149134286786982,-0.0846871379483154,-0.0144683214268564,0.075017581112454,0.198092979784599,0.348562568568923,0.49814826881354,0.615562410896158,0.679301964592098,0.672441789961202,0.582014528307546,0.417814239480871,0.224465062264394,0.0585795644275761,-0.0479528502278826,-0.0955851063609471,-0.0981625564466686,-0.0768804875629392,-0.06992063192341,-0.119223504143765,-0.233175253118826,-0.376348595522719,-0.50427629638741,-0.594963047198306,-0.642576948761474,-0.641101830002038,-0.587524690671443,-0.488643431439532,-0.353813766827412,-0.188607854644926,0.000126445991337759,0.202757141019264,0.412809988124022,0.622321290865122,0.805776935184307,0.917621946033766,0.914255301172981,0.782249377256862,0.552398293382885,0.290830472525189,0.0657324333351151,-0.090974228323975,-0.188102909682924,-0.240430987045075,-0.246760025673271,-0.215273571931833,-0.190817628799026,-0.228839914376556,-0.3440942999525,-0.501869924210615,-0.654116871282232,-0.765958549971711,-0.813395411832695,-0.782263771776133,-0.677364315146702,-0.514954903579506,-0.300089895100263,-0.0288125959297475,0.28069281977805,0.577885902489163,0.811183967661212,0.955115634332329,0.997938800892248,0.921145407280486,0.715338076792223,0.418632996988277,0.121871466309581,-0.0815679475259614,-0.157046357216384,-0.140463446508187,-0.0946848104010412,-0.0641621641467376,-0.0723819663874585,-0.141732110112125,-0.285692119133465,-0.475771829258709,-0.639277761497268,-0.708029986742516,-0.665806504988017,-0.545380673918085,-0.392026518543708,-0.238345106621243,-0.101245812279404,0.0173207382895481,0.130708507739735,0.256465502060664,0.396987625962394,0.532422006541064,0.629683335000524,0.654477173612242,0.585643520541195,0.433987466647129,0.245729829830156,0.0761183777459014,-0.0421304976663621,-0.103220514478337,-0.111861724023856,-0.0768430965643239,-0.0218761074316492,0.0119123372193252,-0.0112768764788597,-0.095778644524656,-0.213301704373686,-0.320489133636054,-0.376006427963447,-0.358498060935758,-0.28282753017475,-0.190216463671603,-0.11151212245173,-0.0452001022042305,0.0259726406806266,0.107981506345849,0.189775231065493,0.253985516218195,0.286169218372406,0.278794937270971,0.23385664370796,0.16371529205211,0.0871945140828874,0.0230128733770709,-0.0125125426402144,-0.00533927582262702,0.0460950728190171,0.114154978056865,0.14849837591575,0.115713843401338,0.0312611917087484,-0.05740452665372,-0.116391030869717,-0.14453413689156,-0.151838377903925,-0.136984316651649,-0.0959522698340089,-0.0426891211748009,-0.00512006602841887,0.00194675278633375,-0.00850993213304377,-0.0107734949990919,0.00841432586894408,0.0393158049064844,0.0596713661279265,0.0570224669334559,0.0422179607409146,0.0356188318638821,0.0387256914475277,0.0299083792365065,-0.00497991146076951,-0.0481370815317292,-0.0692392152374706,-0.0644657411303968,-0.0591431098375227,-0.0691546687540564,-0.0783809945243218,-0.0658746127211741,-0.0398015611969105,-0.0256603319068986,-0.0288310680723846,-0.0291473338436716,-0.0127223919039841,0.00707701130475993,0.00598060496753864,-0.0221280403703332,-0.0580533153006379,-0.0763646415310394,-0.0678814316904812,-0.0444962459860355,-0.024710519934247,-0.0128276837150816,0.00822470620185914,0.0549672699537235,0.10952207638786,0.122016148017105,0.0629982732196459,-0.0329065512239269,-0.0924620861909635,-0.0750946220143821,-0.00991045061719509,0.0412188049691169,0.0508918292280624,0.0472118235960866,0.0662383726168433,0.0982138003559818,0.0991577270238173,0.0516767257830856,-0.00859653792395224,-0.0360363953495813,-0.0289527911362475,-0.0251402697798893,-0.0486304942661085,-0.0792646054961575,-0.0833916741963575,-0.0598519325809263,-0.0373498925385614,-0.033752276872176,-0.0400694505869135,-0.044012681928243,-0.0459027411901788,-0.0431727744120221,-0.0178833734342206,0.045093221937966,0.133106811213225,0.208043143818965,0.233281872430393,0.19847417231072,0.124019152845107,0.0457939265197546,-0.00602196301407028,-0.0177594494996931,0.0107240623999212,0.0697172060513357,0.13450187097916,0.165261629575061,0.129748472210029,0.0319056372144658,-0.0898250856866441,-0.194289393876093,-0.263188315583096,-0.301023307113454,-0.318679689354004,-0.31523375017247,-0.275922465626269,-0.19565584347524,-0.0997302778226296,-0.024373721582968,0.024897108916269,0.0801530149783129,0.170148967114923,0.281699206709383,0.367882478664114,0.389531509527773,0.344544968773066,0.263333409202524,0.184404139467332,0.130622824970669,0.098242006878784,0.0678730686091194,0.031893623275454,0.00674962564158103,0.00827541081230133,0.0184457762384347,-0.00933721493327786,-0.10655115859178,-0.255307441584454,-0.399336333516394,-0.488567935775543,-0.514383803585452,-0.500750732673712,-0.462560105289758,-0.38419761284928,-0.247431366726243,-0.0697785914119683,0.0996378827799503,0.220638509659253,0.289465064180977,0.326773184818257,0.345942508492898,0.339275097243144,0.29694735963107,0.232396433258616,0.17693217244959,0.147456513239234,0.130831156205551,0.106438091440388,0.073917550247933,0.047051100549367,0.027205204789537,-0.00109766114043689,-0.0497323159996873,-0.117143603004874,-0.195735703642589,-0.270207010421585,-0.313102474047028,-0.308300238393234,-0.278672653534369,-0.261641263707502,-0.254184736249527,-0.21270424043999,-0.115670378380297,0.00446886232096244,0.107402628391472,0.19392393550909,0.282229085449318,0.355470825104544,0.368281474593831,0.302804813679125,0.190573613626871,0.0765752971904192,-0.0152582253146996,-0.0745395487201341,-0.0843529238834333,-0.0312537652512599,0.0635488589978663,0.140850922732284,0.147690789184426,0.0833337966452244,-0.00830752491340655,-0.0879446209806577,-0.149410693984562,-0.200487746515867,-0.234065591747659,-0.231557061392737,-0.188499799380036,-0.122764048340038,-0.0552905637322677,0.0074609623278407,0.0687025787176875,0.129119050521738,0.184775866150965,0.227151899300062,0.239040801569261,0.202880143208851,0.124798134589726,0.0418855255921027,-0.00697507726754165,-0.0143483272759118,-0.00129134424263728,0.0131854231677833,0.0297964090293031,0.0554930846484095,0.0791837964273857,0.0703124773747071,0.00963671946208853,-0.082049781652815,-0.159241548337261,-0.196872510083364,-0.205003679873226,-0.196739583768845,-0.164641007038335,-0.103279509937849,-0.0378211938380652,-0.00830863564073446,-0.0277645336715159,-0.0680732457748238,-0.0868286029415606,-0.0620086210151139,-0.00296473823195756,0.0656132089771388,0.126678265388382,0.175413052943736,0.203332793773117,0.191643223828684,0.13387864085341,0.0588244943257178,0.0119618314048278,0.0095248072212963,0.0244060260809364,0.0233602562907274,0.00538630998429005,-0.00590079297526976,0.00188355369848247,0.0147323611235283,0.0124658002629138,-0.00526476835780732,-0.0209907805835504,-0.0271607109283764,-0.0416075622671854,-0.0853013694625057,-0.148126260107564,-0.188621827911217,-0.172377794113391,-0.105775760274322,-0.0267680563016004,0.0349499026573353,0.078906336945495,0.111961240079005,0.120965217488495,0.0865024664301835,0.018804654495805,-0.042918026815512,-0.07089933785431,-0.0694859861362629,-0.0512786924762834,-0.0153923167122719,0.0377385507493945,0.0881949875307684,0.112176483742861,0.108235645551028,0.0935447898726801,0.0784242909064343,0.0565470222400585,0.0193126525808802,-0.0286875417524255,-0.0706194521585236,-0.0910707531140076,-0.0876315508865294,-0.0690812765188086,-0.0436444997676745,-0.0123653939033628,0.0245707018248742,0.0579171626218137,0.0703311157669416,0.0506334929690165,0.00745417006259104,-0.034513718022704,-0.0538727597334216,-0.0454446400705234,-0.013837489858792,0.0361980008922253,0.0944592845794602,0.137804989856835,0.1427891209144,0.108197966441644,0.0575116137233586,0.0176699957063004,-0.000909352260757332,-0.00494627955121392,-0.0036354981946733,0.00303906614829088,0.0162282901962569,0.0203794373225751,-0.00971143734759353,-0.0730598985016121,-0.128373507480734,-0.13328205485265,-0.0901125931699261,-0.0378119049719216,-0.00538221954014025,0.0102361704102705,0.0221678263216952,0.0267325192115045,0.0087883805383646,-0.0297913048707776,-0.058302659889334,-0.0436176335826293,0.0117015136282262,0.0652896254941437,0.0727749218981105,0.0275865522597868,-0.0369232909221649,-0.0802742861316075,-0.0865388848460731,-0.0680085883452056,-0.0470203078387516,-0.0375913436113538,-0.0387714443696695,-0.0407721344796753,-0.0389108395614256,-0.0413878896655923,-0.0584913921397167,-0.0839836510162269,-0.0962177349030574,-0.0842221415406426,-0.0650979274019018,-0.0648459580646936,-0.0875574301814205,-0.115450791508237,-0.131501085546178,-0.126051386176335,-0.0903547148822618,-0.0265162933288667,0.0381254453107324,0.0659295909626564,0.0404529087931726,-0.0254122269908667,-0.105753986369987,-0.17503070246843,-0.212855991550305,-0.209500116402386,-0.168191189722089,-0.100855745861737,-0.0264948935292281,0.0295505525922039,0.0480168762533553,0.0302055794823511,-0.00717692280821891,-0.0480513994139936,-0.0791114055212485,-0.084597298774703,-0.0557959835762911,-0.00533723359883739,0.0409748083969048,0.0696213130614246,0.0885454113760617,0.108269556320445,0.122367844004971,0.114017663754226,0.0782634336239492,0.0318016870028425,0.00225258524317069,0.00894097449701356,0.0486384411395194,0.0976377012510777,0.131474464008538,0.143350841134271,0.14262801217946,0.139255388112826,0.133017167365561,0.119572035475892,0.108494000904415,0.12616811233712,0.185308914624113,0.257185691565141,0.29593490488345,0.28958234188023,0.266112433414547,0.251088899114293,0.243369502798647,0.234941677769566,0.230854975430245,0.240105812350621,0.263008004329189,0.296267500969693,0.336475329005996,0.367424989405062,0.354550588008543,0.267947240088312,0.11085181293576,-0.0880135519935846,-0.313672175713335,-0.58060020783594,-0.893943946302534,-1.18982588266883,-1.32949184168549,-1.18443991520898,-0.731523810232446,-0.0796659147877864,0.554133035156008
